Time (s),Signal (V),Peak Time (s) ,Sample #,Type
00.000,3.075950405,00.468,234,N
00.002,2.796942139,00.706,353,t
00.004,2.695484588,01.256,628,N
00.006,2.365747546,01.512,756,t
00.008,2.619391424,02.118,1059,N
00.010,2.644755812,02.370,1185,t
00.012,2.644755812,02.920,1460,N
00.014,2.813851731,03.172,1586,t
00.016,2.881490098,03.736,1868,N
00.018,2.991402446,03.992,1996,t
00.020,3.059040813,04.596,2298,N
00.022,2.805396935,04.826,2413,t
00.024,2.568662649,05.354,2677,N
00.026,2.391111934,05.604,2802,t
00.028,2.636301016,06.146,3073,N
00.030,2.602481833,06.402,3201,t
00.032,2.644755812,06.946,3473,N
00.034,2.822306527,07.190,3595,t
00.036,2.830761323,07.794,3897,N
00.038,3.075950405,08.050,4025,t
00.040,3.067495609,,,
00.042,2.881490098,,,
00.044,2.644755812,,,
00.046,2.35729275,,,
00.048,2.534843465,,,
00.050,2.585572241,,,
00.052,2.560207853,,,
00.054,2.763122955,,,
00.056,2.915309282,,,
00.058,3.135133976,,,
00.060,3.143588772,,,
00.062,2.805396935,,,
00.064,2.560207853,,,
00.066,2.315018771,,,
00.068,2.585572241,,,
00.070,2.534843465,,,
00.072,2.644755812,,,
00.074,2.881490098,,,
00.076,2.805396935,,,
00.078,3.160498364,,,
00.080,3.16895316,,,
00.082,2.864580507,,,
00.084,2.543298261,,,
00.086,2.306563975,,,
00.088,2.543298261,,,
00.090,2.551753057,,,
00.092,2.661665404,,,
00.094,2.788487343,,,
00.096,2.780032547,,,
00.098,3.067495609,,,
00.100,3.084405201,,,
00.102,2.847670915,,,
00.104,2.594027037,,,
00.106,2.289654383,,,
00.108,2.577117445,,,
00.110,2.568662649,,,
00.112,2.661665404,,,
00.114,2.771577751,,,
00.116,2.839216119,,,
00.118,3.092859997,,,
00.120,2.966038058,,,
00.122,2.847670915,,,
00.124,2.467205098,,,
00.126,2.365747546,,,
00.128,2.636301016,,,
00.130,2.577117445,,,
00.132,2.644755812,,,
00.134,2.720848976,,,
00.136,2.805396935,,,
00.138,3.075950405,,,
00.140,2.98294765,,,
00.142,2.780032547,,,
00.144,2.408021526,,,
00.146,2.35729275,,,
00.148,2.517933873,,,
00.150,2.543298261,,,
00.152,2.695484588,,,
00.154,2.830761323,,,
00.156,2.813851731,,,
00.158,2.999857241,,,
00.160,2.906854486,,,
00.162,2.839216119,,,
00.164,2.365747546,,,
00.166,2.340383159,,,
00.168,2.636301016,,,
00.170,2.551753057,,,
00.172,2.568662649,,,
00.174,2.805396935,,,
00.176,2.796942139,,,
00.178,3.101314793,,,
00.180,2.949128466,,,
00.182,2.813851731,,,
00.184,2.348837954,,,
00.186,2.408021526,,,
00.188,2.534843465,,,
00.190,2.568662649,,,
00.192,2.653210608,,,
00.194,2.957583262,,,
00.196,2.974492854,,,
00.198,3.050586017,,,
00.200,2.839216119,,,
00.202,2.636301016,,,
00.204,2.179742036,,,
00.206,2.475659894,,,
00.208,2.610936628,,,
00.210,2.568662649,,,
00.212,2.653210608,,,
00.214,2.763122955,,,
00.216,2.923764078,,,
00.218,2.991402446,,,
00.220,2.754668159,,,
00.222,2.703939384,,,
00.224,2.365747546,,,
00.226,2.408021526,,,
00.228,2.458750302,,,
00.230,2.526388669,,,
00.232,2.661665404,,,
00.234,2.729303772,,,
00.236,2.999857241,,,
00.238,3.101314793,,,
00.240,2.813851731,,,
00.242,2.594027037,,,
00.244,2.281199587,,,
00.246,2.416476322,,,
00.248,2.517933873,,,
00.250,2.543298261,,,
00.252,2.678574996,,,
00.254,2.729303772,,,
00.256,2.957583262,,,
00.258,3.059040813,,,
00.260,2.830761323,,,
00.262,2.517933873,,,
00.264,2.281199587,,,
00.266,2.424931118,,,
00.268,2.509479077,,,
00.270,2.526388669,,,
00.272,2.661665404,,,
00.274,2.720848976,,,
00.276,2.915309282,,,
00.278,2.999857241,,,
00.280,2.822306527,,,
00.282,2.543298261,,,
00.284,2.238925607,,,
00.286,2.44184071,,,
00.288,2.492569485,,,
00.290,2.619391424,,,
00.292,2.763122955,,,
00.294,2.763122955,,,
00.296,3.067495609,,,
00.298,3.008312037,,,
00.300,2.729303772,,,
00.302,2.44184071,,,
00.304,2.196651628,,,
00.306,2.484114689,,,
00.308,2.560207853,,,
00.310,2.577117445,,,
00.312,2.813851731,,,
00.314,2.864580507,,,
00.316,3.135133976,,,
00.318,3.177407956,,,
00.320,2.788487343,,,
00.322,2.568662649,,,
00.324,2.391111934,,,
00.326,2.62784622,,,
00.328,2.594027037,,,
00.330,2.687029792,,,
00.332,2.830761323,,,
00.334,2.94067367,,,
00.336,3.245046324,,,
00.338,3.084405201,,,
00.340,2.991402446,,,
00.342,2.610936628,,,
00.344,2.348837954,,,
00.346,2.602481833,,,
00.348,2.594027037,,,
00.350,2.71239418,,,
00.352,2.813851731,,,
00.354,2.873035302,,,
00.356,3.135133976,,,
00.358,3.135133976,,,
00.360,2.813851731,,,
00.362,2.619391424,,,
00.364,2.340383159,,,
00.366,2.661665404,,,
00.368,2.619391424,,,
00.370,2.678574996,,,
00.372,2.805396935,,,
00.374,2.830761323,,,
00.376,3.033676425,,,
00.378,2.98294765,,,
00.380,2.856125711,,,
00.382,2.467205098,,,
00.384,2.17128724,,,
00.386,2.424931118,,,
00.388,2.408021526,,,
00.390,2.492569485,,,
00.392,2.661665404,,,
00.394,2.763122955,,,
00.396,2.966038058,,,
00.398,2.847670915,,,
00.400,2.71239418,,,
00.402,2.365747546,,,
00.404,2.21356122,,,
00.406,2.467205098,,,
00.408,2.433385914,,,
00.410,2.534843465,,,
00.412,2.653210608,,,
00.414,2.653210608,,,
00.416,3.008312037,,,
00.418,2.856125711,,,
00.420,2.636301016,,,
00.422,2.331928363,,,
00.424,2.298109179,,,
00.426,2.39956673,,,
00.428,2.416476322,,,
00.430,2.560207853,,,
00.432,2.695484588,,,
00.434,2.644755812,,,
00.436,2.830761323,,,
00.438,2.71239418,,,
00.440,2.568662649,,,
00.442,2.145922852,,,
00.444,2.103648872,,,
00.446,2.281199587,,,
00.448,2.205106424,,,
00.450,2.348837954,,,
00.452,2.746213363,,,
00.454,2.89839969,,,
00.456,3.25350112,,,
00.458,3.304229895,,,
00.460,3.329594283,,,
00.462,3.236591528,,,
00.464,3.540964181,,,
00.466,3.997523162,,,
00.468,4.132799897,,,
00.470,4.284986224,,,
00.472,4.394898571,,,
00.474,4.470991734,,,
00.476,4.555539693,,,
00.478,4.217347856,,,
00.480,3.819972447,,,
00.482,3.321139487,,,
00.484,3.287320303,,,
00.486,3.194317548,,,
00.488,2.966038058,,,
00.490,2.788487343,,,
00.492,2.822306527,,,
00.494,2.856125711,,,
00.496,2.966038058,,,
00.498,2.729303772,,,
00.500,2.602481833,,,
00.502,2.078284485,,,
00.504,2.222016015,,,
00.506,2.230470811,,,
00.508,2.298109179,,,
00.510,2.348837954,,,
00.512,2.602481833,,,
00.514,2.653210608,,,
00.516,2.856125711,,,
00.518,2.746213363,,,
00.520,2.6701202,,,
00.522,2.238925607,,,
00.524,2.424931118,,,
00.526,2.534843465,,,
00.528,2.610936628,,,
00.530,2.780032547,,,
00.532,2.796942139,,,
00.534,2.999857241,,,
00.536,3.050586017,,,
00.538,2.839216119,,,
00.540,2.687029792,,,
00.542,2.323473567,,,
00.544,2.467205098,,,
00.546,2.560207853,,,
00.548,2.619391424,,,
00.550,2.771577751,,,
00.552,2.906854486,,,
00.554,3.118224385,,,
00.556,3.109769589,,,
00.558,2.856125711,,,
00.560,2.585572241,,,
00.562,2.340383159,,,
00.564,2.551753057,,,
00.566,2.636301016,,,
00.568,2.6701202,,,
00.570,2.780032547,,,
00.572,2.889944894,,,
00.574,3.118224385,,,
00.576,3.084405201,,,
00.578,2.94067367,,,
00.580,2.653210608,,,
00.582,2.450295506,,,
00.584,2.636301016,,,
00.586,2.703939384,,,
00.588,2.746213363,,,
00.590,2.89839969,,,
00.592,2.839216119,,,
00.594,3.033676425,,,
00.596,3.126679181,,,
00.598,2.957583262,,,
00.600,2.653210608,,,
00.602,2.331928363,,,
00.604,2.720848976,,,
00.606,2.746213363,,,
00.608,2.873035302,,,
00.610,2.839216119,,,
00.612,2.974492854,,,
00.614,3.160498364,,,
00.616,3.219681936,,,
00.618,2.949128466,,,
00.620,2.703939384,,,
00.622,2.458750302,,,
00.624,2.619391424,,,
00.626,2.703939384,,,
00.628,2.830761323,,,
00.630,3.025221629,,,
00.632,3.050586017,,,
00.634,3.295775099,,,
00.636,3.185862752,,,
00.638,3.042131221,,,
00.640,2.771577751,,,
00.642,2.602481833,,,
00.644,2.830761323,,,
00.646,2.746213363,,,
00.648,2.737758568,,,
00.650,3.059040813,,,
00.652,3.160498364,,,
00.654,3.473325814,,,
00.656,3.346503875,,,
00.658,3.075950405,,,
00.660,2.771577751,,,
00.662,2.602481833,,,
00.664,2.864580507,,,
00.666,2.830761323,,,
00.668,2.98294765,,,
00.670,3.135133976,,,
00.672,3.185862752,,,
00.674,3.549418977,,,
00.676,3.43950663,,,
00.678,3.202772344,,,
00.680,2.94067367,,,
00.682,2.746213363,,,
00.684,3.042131221,,,
00.686,2.974492854,,,
00.688,3.075950405,,,
00.690,3.270410711,,,
00.692,3.329594283,,,
00.694,3.600147753,,,
00.696,3.490235406,,,
00.698,3.363413467,,,
00.700,3.109769589,,,
00.702,2.847670915,,,
00.704,3.152043568,,,
00.706,3.084405201,,,
00.708,3.202772344,,,
00.710,3.312684691,,,
00.712,3.431051834,,,
00.714,3.66778612,,,
00.716,3.515599794,,,
00.718,3.422597038,,,
00.720,3.016766833,,,
00.722,2.966038058,,,
00.724,3.143588772,,,
00.726,3.101314793,,,
00.728,3.202772344,,,
00.730,3.380323059,,,
00.732,3.346503875,,,
00.734,3.591692957,,,
00.736,3.431051834,,,
00.738,3.329594283,,,
00.740,2.923764078,,,
00.742,2.881490098,,,
00.744,2.949128466,,,
00.746,2.999857241,,,
00.748,3.008312037,,,
00.750,3.177407956,,,
00.752,3.287320303,,,
00.754,3.422597038,,,
00.756,3.228136732,,,
00.758,3.101314793,,,
00.760,2.653210608,,,
00.762,2.653210608,,,
00.764,2.805396935,,,
00.766,2.788487343,,,
00.768,2.915309282,,,
00.770,3.016766833,,,
00.772,3.126679181,,,
00.774,3.278865507,,,
00.776,3.033676425,,,
00.778,2.98294765,,,
00.780,2.543298261,,,
00.782,2.653210608,,,
00.784,2.746213363,,,
00.786,2.678574996,,,
00.788,2.763122955,,,
00.790,2.915309282,,,
00.792,3.177407956,,,
00.794,3.25350112,,,
00.796,2.949128466,,,
00.798,2.847670915,,,
00.800,2.433385914,,,
00.802,2.602481833,,,
00.804,2.71239418,,,
00.806,2.695484588,,,
00.808,2.839216119,,,
00.810,2.966038058,,,
00.812,3.143588772,,,
00.814,3.261955915,,,
00.816,2.932218874,,,
00.818,2.788487343,,,
00.820,2.391111934,,,
00.822,2.6701202,,,
00.824,2.780032547,,,
00.826,2.746213363,,,
00.828,2.788487343,,,
00.830,2.974492854,,,
00.832,3.101314793,,,
00.834,3.21122714,,,
00.836,2.98294765,,,
00.838,2.746213363,,,
00.840,2.433385914,,,
00.842,2.62784622,,,
00.844,2.703939384,,,
00.846,2.780032547,,,
00.848,2.889944894,,,
00.850,2.94067367,,,
00.852,3.118224385,,,
00.854,3.152043568,,,
00.856,3.008312037,,,
00.858,2.771577751,,,
00.860,2.517933873,,,
00.862,2.71239418,,,
00.864,2.661665404,,,
00.866,2.788487343,,,
00.868,2.923764078,,,
00.870,2.974492854,,,
00.872,3.261955915,,,
00.874,3.135133976,,,
00.876,2.999857241,,,
00.878,2.746213363,,,
00.880,2.44184071,,,
00.882,2.661665404,,,
00.884,2.62784622,,,
00.886,2.847670915,,,
00.888,2.94067367,,,
00.890,2.89839969,,,
00.892,3.270410711,,,
00.894,3.228136732,,,
00.896,3.101314793,,,
00.898,2.763122955,,,
00.900,2.433385914,,,
00.902,2.636301016,,,
00.904,2.661665404,,,
00.906,2.889944894,,,
00.908,3.016766833,,,
00.910,3.042131221,,,
00.912,3.219681936,,,
00.914,3.177407956,,,
00.916,3.050586017,,,
00.918,2.71239418,,,
00.920,2.416476322,,,
00.922,2.636301016,,,
00.924,2.796942139,,,
00.926,2.873035302,,,
00.928,2.98294765,,,
00.930,2.957583262,,,
00.932,3.177407956,,,
00.934,3.21122714,,,
00.936,3.050586017,,,
00.938,2.644755812,,,
00.940,2.492569485,,,
00.942,2.678574996,,,
00.944,2.729303772,,,
00.946,2.856125711,,,
00.948,2.957583262,,,
00.950,2.98294765,,,
00.952,3.354958671,,,
00.954,3.194317548,,,
00.956,2.856125711,,,
00.958,2.644755812,,,
00.960,2.585572241,,,
00.962,2.653210608,,,
00.964,2.754668159,,,
00.966,2.788487343,,,
00.968,2.923764078,,,
00.970,3.042131221,,,
00.972,3.321139487,,,
00.974,3.152043568,,,
00.976,3.033676425,,,
00.978,2.644755812,,,
00.980,2.492569485,,,
00.982,2.71239418,,,
00.984,2.720848976,,,
00.986,2.839216119,,,
00.988,2.98294765,,,
00.990,2.974492854,,,
00.992,3.219681936,,,
00.994,3.126679181,,,
00.996,2.999857241,,,
00.998,2.619391424,,,
01.000,2.543298261,,,
01.002,2.746213363,,,
01.004,2.771577751,,,
01.006,2.856125711,,,
01.008,2.957583262,,,
01.010,3.084405201,,,
01.012,3.194317548,,,
01.014,3.033676425,,,
01.016,2.949128466,,,
01.018,2.602481833,,,
01.020,2.543298261,,,
01.022,2.729303772,,,
01.024,2.763122955,,,
01.026,2.873035302,,,
01.028,2.932218874,,,
01.030,3.033676425,,,
01.032,3.287320303,,,
01.034,3.160498364,,,
01.036,2.957583262,,,
01.038,2.619391424,,,
01.040,2.610936628,,,
01.042,2.746213363,,,
01.044,2.788487343,,,
01.046,2.830761323,,,
01.048,2.98294765,,,
01.050,3.067495609,,,
01.052,3.295775099,,,
01.054,3.033676425,,,
01.056,2.839216119,,,
01.058,2.585572241,,,
01.060,2.653210608,,,
01.062,2.830761323,,,
01.064,2.830761323,,,
01.066,2.89839969,,,
01.068,3.050586017,,,
01.070,3.177407956,,,
01.072,3.295775099,,,
01.074,3.177407956,,,
01.076,3.075950405,,,
01.078,2.636301016,,,
01.080,2.577117445,,,
01.082,2.788487343,,,
01.084,2.906854486,,,
01.086,2.999857241,,,
01.088,3.033676425,,,
01.090,3.261955915,,,
01.092,3.405687446,,,
01.094,3.135133976,,,
01.096,2.98294765,,,
01.098,2.62784622,,,
01.100,2.796942139,,,
01.102,2.949128466,,,
01.104,2.949128466,,,
01.106,3.008312037,,,
01.108,3.143588772,,,
01.110,3.405687446,,,
01.112,3.304229895,,,
01.114,3.194317548,,,
01.116,3.101314793,,,
01.118,2.729303772,,,
01.120,2.847670915,,,
01.122,2.949128466,,,
01.124,2.999857241,,,
01.126,3.177407956,,,
01.128,3.278865507,,,
01.130,3.456416222,,,
01.132,3.524054589,,,
01.134,3.194317548,,,
01.136,3.025221629,,,
01.138,2.678574996,,,
01.140,2.932218874,,,
01.142,2.923764078,,,
01.144,2.957583262,,,
01.146,3.194317548,,,
01.148,3.21122714,,,
01.150,3.422597038,,,
01.152,3.490235406,,,
01.154,3.177407956,,,
01.156,2.813851731,,,
01.158,2.585572241,,,
01.160,2.771577751,,,
01.162,2.796942139,,,
01.164,2.754668159,,,
01.166,2.98294765,,,
01.168,3.025221629,,,
01.170,3.219681936,,,
01.172,3.21122714,,,
01.174,2.94067367,,,
01.176,2.687029792,,,
01.178,2.467205098,,,
01.180,2.703939384,,,
01.182,2.6701202,,,
01.184,2.737758568,,,
01.186,2.906854486,,,
01.188,2.966038058,,,
01.190,3.194317548,,,
01.192,3.143588772,,,
01.194,2.89839969,,,
01.196,2.534843465,,,
01.198,2.408021526,,,
01.200,2.62784622,,,
01.202,2.62784622,,,
01.204,2.788487343,,,
01.206,2.881490098,,,
01.208,2.957583262,,,
01.210,3.202772344,,,
01.212,3.109769589,,,
01.214,2.94067367,,,
01.216,2.653210608,,,
01.218,2.340383159,,,
01.220,2.543298261,,,
01.222,2.509479077,,,
01.224,2.636301016,,,
01.226,2.763122955,,,
01.228,2.720848976,,,
01.230,2.991402446,,,
01.232,2.957583262,,,
01.234,2.754668159,,,
01.236,2.340383159,,,
01.238,2.238925607,,,
01.240,2.534843465,,,
01.242,2.653210608,,,
01.244,2.966038058,,,
01.246,3.16895316,,,
01.248,3.456416222,,,
01.250,3.955249182,,,
01.252,4.242712244,,,
01.254,4.217347856,,,
01.256,4.107435509,,,
01.258,4.065161529,,,
01.260,4.377988979,,,
01.262,4.29344102,,,
01.264,4.344169795,,,
01.266,4.411808163,,,
01.268,4.242712244,,,
01.270,4.394898571,,,
01.272,4.014432754,,,
01.274,3.718514896,,,
01.276,3.245046324,,,
01.278,2.873035302,,,
01.280,2.788487343,,,
01.282,2.661665404,,,
01.284,2.847670915,,,
01.286,2.89839969,,,
01.288,2.805396935,,,
01.290,3.059040813,,,
01.292,2.949128466,,,
01.294,2.703939384,,,
01.296,2.348837954,,,
01.298,2.298109179,,,
01.300,2.484114689,,,
01.302,2.551753057,,,
01.304,2.653210608,,,
01.306,2.805396935,,,
01.308,2.881490098,,,
01.310,3.135133976,,,
01.312,2.974492854,,,
01.314,2.856125711,,,
01.316,2.450295506,,,
01.318,2.534843465,,,
01.320,2.71239418,,,
01.322,2.780032547,,,
01.324,2.661665404,,,
01.326,2.839216119,,,
01.328,2.98294765,,,
01.330,3.194317548,,,
01.332,3.084405201,,,
01.334,2.906854486,,,
01.336,2.416476322,,,
01.338,2.551753057,,,
01.340,2.687029792,,,
01.342,2.594027037,,,
01.344,2.610936628,,,
01.346,2.881490098,,,
01.348,3.016766833,,,
01.350,3.194317548,,,
01.352,2.999857241,,,
01.354,2.923764078,,,
01.356,2.458750302,,,
01.358,2.594027037,,,
01.360,2.577117445,,,
01.362,2.594027037,,,
01.364,2.813851731,,,
01.366,2.932218874,,,
01.368,3.067495609,,,
01.370,3.21122714,,,
01.372,3.042131221,,,
01.374,2.873035302,,,
01.376,2.44184071,,,
01.378,2.619391424,,,
01.380,2.695484588,,,
01.382,2.780032547,,,
01.384,2.813851731,,,
01.386,2.974492854,,,
01.388,3.16895316,,,
01.390,3.177407956,,,
01.392,2.957583262,,,
01.394,2.856125711,,,
01.396,2.492569485,,,
01.398,2.551753057,,,
01.400,2.771577751,,,
01.402,2.847670915,,,
01.404,2.974492854,,,
01.406,2.999857241,,,
01.408,3.236591528,,,
01.410,3.270410711,,,
01.412,3.067495609,,,
01.414,2.805396935,,,
01.416,2.534843465,,,
01.418,2.720848976,,,
01.420,2.796942139,,,
01.422,2.830761323,,,
01.424,3.042131221,,,
01.426,3.084405201,,,
01.428,3.270410711,,,
01.430,3.295775099,,,
01.432,3.084405201,,,
01.434,2.847670915,,,
01.436,2.594027037,,,
01.438,2.839216119,,,
01.440,2.915309282,,,
01.442,3.016766833,,,
01.444,3.067495609,,,
01.446,3.135133976,,,
01.448,3.380323059,,,
01.450,3.354958671,,,
01.452,3.261955915,,,
01.454,2.873035302,,,
01.456,2.71239418,,,
01.458,2.957583262,,,
01.460,3.050586017,,,
01.462,2.991402446,,,
01.464,3.16895316,,,
01.466,3.304229895,,,
01.468,3.549418977,,,
01.470,3.490235406,,,
01.472,3.287320303,,,
01.474,3.033676425,,,
01.476,2.805396935,,,
01.478,3.075950405,,,
01.480,3.101314793,,,
01.482,3.152043568,,,
01.484,3.25350112,,,
01.486,3.388777854,,,
01.488,3.650876528,,,
01.490,3.566328569,,,
01.492,3.270410711,,,
01.494,3.084405201,,,
01.496,2.957583262,,,
01.498,3.287320303,,,
01.500,3.135133976,,,
01.502,3.219681936,,,
01.504,3.338049079,,,
01.506,3.490235406,,,
01.508,3.75233408,,,
01.510,3.591692957,,,
01.512,3.456416222,,,
01.514,3.16895316,,,
01.516,2.94067367,,,
01.518,3.16895316,,,
01.520,3.059040813,,,
01.522,3.228136732,,,
01.524,3.363413467,,,
01.526,3.388777854,,,
01.528,3.617057345,,,
01.530,3.591692957,,,
01.532,3.295775099,,,
01.534,2.932218874,,,
01.536,2.729303772,,,
01.538,2.991402446,,,
01.540,2.94067367,,,
01.542,3.075950405,,,
01.544,3.202772344,,,
01.546,3.143588772,,,
01.548,3.388777854,,,
01.550,3.261955915,,,
01.552,3.050586017,,,
01.554,2.839216119,,,
01.556,2.6701202,,,
01.558,2.839216119,,,
01.560,2.906854486,,,
01.562,2.966038058,,,
01.564,3.067495609,,,
01.566,3.084405201,,,
01.568,3.295775099,,,
01.570,3.143588772,,,
01.572,2.974492854,,,
01.574,2.661665404,,,
01.576,2.551753057,,,
01.578,2.737758568,,,
01.580,2.788487343,,,
01.582,2.906854486,,,
01.584,3.008312037,,,
01.586,3.016766833,,,
01.588,3.236591528,,,
01.590,3.050586017,,,
01.592,2.932218874,,,
01.594,2.619391424,,,
01.596,2.644755812,,,
01.598,2.737758568,,,
01.600,2.788487343,,,
01.602,2.89839969,,,
01.604,3.101314793,,,
01.606,2.98294765,,,
01.608,3.219681936,,,
01.610,3.075950405,,,
01.612,3.042131221,,,
01.614,2.560207853,,,
01.616,2.602481833,,,
01.618,2.695484588,,,
01.620,2.763122955,,,
01.622,2.856125711,,,
01.624,2.94067367,,,
01.626,3.042131221,,,
01.628,3.270410711,,,
01.630,3.075950405,,,
01.632,2.957583262,,,
01.634,2.543298261,,,
01.636,2.661665404,,,
01.638,2.71239418,,,
01.640,2.788487343,,,
01.642,2.873035302,,,
01.644,2.98294765,,,
01.646,3.118224385,,,
01.648,3.25350112,,,
01.650,3.075950405,,,
01.652,2.923764078,,,
01.654,2.543298261,,,
01.656,2.71239418,,,
01.658,2.788487343,,,
01.660,2.839216119,,,
01.662,2.873035302,,,
01.664,3.025221629,,,
01.666,3.16895316,,,
01.668,3.312684691,,,
01.670,3.143588772,,,
01.672,2.94067367,,,
01.674,2.594027037,,,
01.676,2.687029792,,,
01.678,2.813851731,,,
01.680,2.813851731,,,
01.682,2.932218874,,,
01.684,2.966038058,,,
01.686,3.25350112,,,
01.688,3.304229895,,,
01.690,3.16895316,,,
01.692,2.923764078,,,
01.694,2.534843465,,,
01.696,2.6701202,,,
01.698,2.737758568,,,
01.700,2.839216119,,,
01.702,3.016766833,,,
01.704,3.033676425,,,
01.706,3.346503875,,,
01.708,3.295775099,,,
01.710,3.033676425,,,
01.712,2.813851731,,,
01.714,2.517933873,,,
01.716,2.796942139,,,
01.718,2.780032547,,,
01.720,2.805396935,,,
01.722,3.008312037,,,
01.724,3.185862752,,,
01.726,3.185862752,,,
01.728,3.245046324,,,
01.730,3.084405201,,,
01.732,2.813851731,,,
01.734,2.458750302,,,
01.736,2.754668159,,,
01.738,2.873035302,,,
01.740,2.822306527,,,
01.742,2.949128466,,,
01.744,3.092859997,,,
01.746,3.287320303,,,
01.748,3.312684691,,,
01.750,3.025221629,,,
01.752,2.737758568,,,
01.754,2.433385914,,,
01.756,2.703939384,,,
01.758,2.780032547,,,
01.760,2.822306527,,,
01.762,2.957583262,,,
01.764,2.999857241,,,
01.766,3.329594283,,,
01.768,3.278865507,,,
01.770,3.042131221,,,
01.772,2.71239418,,,
01.774,2.35729275,,,
01.776,2.720848976,,,
01.778,2.839216119,,,
01.780,2.889944894,,,
01.782,2.974492854,,,
01.784,3.016766833,,,
01.786,3.194317548,,,
01.788,3.143588772,,,
01.790,2.966038058,,,
01.792,2.720848976,,,
01.794,2.424931118,,,
01.796,2.822306527,,,
01.798,2.830761323,,,
01.800,2.729303772,,,
01.802,2.906854486,,,
01.804,3.025221629,,,
01.806,3.25350112,,,
01.808,3.219681936,,,
01.810,2.949128466,,,
01.812,2.729303772,,,
01.814,2.424931118,,,
01.816,2.678574996,,,
01.818,2.678574996,,,
01.820,2.822306527,,,
01.822,2.881490098,,,
01.824,2.974492854,,,
01.826,3.278865507,,,
01.828,3.194317548,,,
01.830,2.906854486,,,
01.832,2.636301016,,,
01.834,2.450295506,,,
01.836,2.678574996,,,
01.838,2.71239418,,,
01.840,2.771577751,,,
01.842,2.915309282,,,
01.844,2.906854486,,,
01.846,3.270410711,,,
01.848,3.135133976,,,
01.850,2.94067367,,,
01.852,2.585572241,,,
01.854,2.560207853,,,
01.856,2.577117445,,,
01.858,2.695484588,,,
01.860,2.839216119,,,
01.862,2.94067367,,,
01.864,2.957583262,,,
01.866,3.236591528,,,
01.868,3.152043568,,,
01.870,2.89839969,,,
01.872,2.551753057,,,
01.874,2.568662649,,,
01.876,2.737758568,,,
01.878,2.71239418,,,
01.880,2.729303772,,,
01.882,2.949128466,,,
01.884,2.966038058,,,
01.886,3.228136732,,,
01.888,3.067495609,,,
01.890,2.923764078,,,
01.892,2.551753057,,,
01.894,2.577117445,,,
01.896,2.763122955,,,
01.898,2.71239418,,,
01.900,2.763122955,,,
01.902,2.957583262,,,
01.904,3.050586017,,,
01.906,3.25350112,,,
01.908,3.016766833,,,
01.910,2.906854486,,,
01.912,2.492569485,,,
01.914,2.577117445,,,
01.916,2.653210608,,,
01.918,2.746213363,,,
01.920,2.839216119,,,
01.922,3.008312037,,,
01.924,3.067495609,,,
01.926,3.295775099,,,
01.928,3.067495609,,,
01.930,2.881490098,,,
01.932,2.501024281,,,
01.934,2.678574996,,,
01.936,2.729303772,,,
01.938,2.678574996,,,
01.940,2.864580507,,,
01.942,2.991402446,,,
01.944,3.261955915,,,
01.946,3.287320303,,,
01.948,3.033676425,,,
01.950,2.957583262,,,
01.952,2.509479077,,,
01.954,2.6701202,,,
01.956,2.695484588,,,
01.958,2.873035302,,,
01.960,2.906854486,,,
01.962,3.008312037,,,
01.964,3.16895316,,,
01.966,3.25350112,,,
01.968,3.143588772,,,
01.970,2.89839969,,,
01.972,2.585572241,,,
01.974,2.796942139,,,
01.976,2.906854486,,,
01.978,2.906854486,,,
01.980,3.118224385,,,
01.982,3.185862752,,,
01.984,3.371868263,,,
01.986,3.329594283,,,
01.988,3.270410711,,,
01.990,2.966038058,,,
01.992,2.678574996,,,
01.994,2.873035302,,,
01.996,2.923764078,,,
01.998,2.94067367,,,
02.000,3.16895316,,,
02.002,3.126679181,,,
02.004,3.304229895,,,
02.006,3.338049079,,,
02.008,3.126679181,,,
02.010,2.881490098,,,
02.012,2.653210608,,,
02.014,2.805396935,,,
02.016,2.873035302,,,
02.018,2.932218874,,,
02.020,2.98294765,,,
02.022,3.025221629,,,
02.024,3.295775099,,,
02.026,3.261955915,,,
02.028,3.016766833,,,
02.030,2.71239418,,,
02.032,2.467205098,,,
02.034,2.754668159,,,
02.036,2.703939384,,,
02.038,2.754668159,,,
02.040,2.949128466,,,
02.042,2.98294765,,,
02.044,3.202772344,,,
02.046,3.194317548,,,
02.048,2.974492854,,,
02.050,2.746213363,,,
02.052,2.323473567,,,
02.054,2.636301016,,,
02.056,2.661665404,,,
02.058,2.763122955,,,
02.060,2.830761323,,,
02.062,2.932218874,,,
02.064,3.126679181,,,
02.066,3.092859997,,,
02.068,2.98294765,,,
02.070,2.619391424,,,
02.072,2.323473567,,,
02.074,2.543298261,,,
02.076,2.695484588,,,
02.078,2.737758568,,,
02.080,2.796942139,,,
02.082,2.763122955,,,
02.084,3.025221629,,,
02.086,2.991402446,,,
02.088,2.720848976,,,
02.090,2.408021526,,,
02.092,2.222016015,,,
02.094,2.458750302,,,
02.096,2.416476322,,,
02.098,2.585572241,,,
02.100,2.687029792,,,
02.102,2.932218874,,,
02.104,3.295775099,,,
02.106,3.473325814,,,
02.108,3.422597038,,,
02.110,3.363413467,,,
02.112,3.405687446,,,
02.114,4.005977958,,,
02.116,4.158164285,,,
02.118,4.420262959,,,
02.120,4.699271224,,,
02.122,4.538630102,,,
02.124,4.75,,,
02.126,4.623178061,,,
02.128,4.276531428,,,
02.130,3.735424488,,,
02.132,3.498690202,,,
02.134,3.507144998,,,
02.136,3.346503875,,,
02.138,3.143588772,,,
02.140,3.033676425,,,
02.142,2.966038058,,,
02.144,3.228136732,,,
02.146,3.016766833,,,
02.148,2.839216119,,,
02.150,2.39956673,,,
02.152,2.272744791,,,
02.154,2.408021526,,,
02.156,2.416476322,,,
02.158,2.39956673,,,
02.160,2.737758568,,,
02.162,2.805396935,,,
02.164,2.949128466,,,
02.166,2.847670915,,,
02.168,2.805396935,,,
02.170,2.391111934,,,
02.172,2.408021526,,,
02.174,2.602481833,,,
02.176,2.619391424,,,
02.178,2.687029792,,,
02.180,2.873035302,,,
02.182,2.873035302,,,
02.184,3.084405201,,,
02.186,2.932218874,,,
02.188,2.864580507,,,
02.190,2.408021526,,,
02.192,2.450295506,,,
02.194,2.610936628,,,
02.196,2.577117445,,,
02.198,2.636301016,,,
02.200,2.737758568,,,
02.202,2.906854486,,,
02.204,3.160498364,,,
02.206,2.974492854,,,
02.208,2.788487343,,,
02.210,2.416476322,,,
02.212,2.509479077,,,
02.214,2.543298261,,,
02.216,2.585572241,,,
02.218,2.695484588,,,
02.220,2.763122955,,,
02.222,2.94067367,,,
02.224,3.075950405,,,
02.226,2.949128466,,,
02.228,2.780032547,,,
02.230,2.44184071,,,
02.232,2.484114689,,,
02.234,2.467205098,,,
02.236,2.653210608,,,
02.238,2.780032547,,,
02.240,2.864580507,,,
02.242,2.974492854,,,
02.244,3.075950405,,,
02.246,2.906854486,,,
02.248,2.678574996,,,
02.250,2.298109179,,,
02.252,2.636301016,,,
02.254,2.577117445,,,
02.256,2.585572241,,,
02.258,2.89839969,,,
02.260,2.991402446,,,
02.262,2.974492854,,,
02.264,3.084405201,,,
02.266,2.915309282,,,
02.268,2.746213363,,,
02.270,2.365747546,,,
02.272,2.560207853,,,
02.274,2.636301016,,,
02.276,2.720848976,,,
02.278,2.839216119,,,
02.280,2.915309282,,,
02.282,3.101314793,,,
02.284,3.109769589,,,
02.286,2.932218874,,,
02.288,2.568662649,,,
02.290,2.450295506,,,
02.292,2.610936628,,,
02.294,2.619391424,,,
02.296,2.780032547,,,
02.298,2.915309282,,,
02.300,2.923764078,,,
02.302,3.194317548,,,
02.304,3.228136732,,,
02.306,2.999857241,,,
02.308,2.687029792,,,
02.310,2.408021526,,,
02.312,2.737758568,,,
02.314,2.720848976,,,
02.316,2.746213363,,,
02.318,3.042131221,,,
02.320,3.084405201,,,
02.322,3.329594283,,,
02.324,3.261955915,,,
02.326,3.050586017,,,
02.328,2.763122955,,,
02.330,2.568662649,,,
02.332,2.830761323,,,
02.334,2.805396935,,,
02.336,2.932218874,,,
02.338,3.118224385,,,
02.340,3.152043568,,,
02.342,3.447961426,,,
02.344,3.414142242,,,
02.346,3.185862752,,,
02.348,2.89839969,,,
02.350,2.619391424,,,
02.352,2.906854486,,,
02.354,2.957583262,,,
02.356,2.957583262,,,
02.358,3.16895316,,,
02.360,3.312684691,,,
02.362,3.498690202,,,
02.364,3.405687446,,,
02.366,3.236591528,,,
02.368,2.999857241,,,
02.370,2.71239418,,,
02.372,2.957583262,,,
02.374,2.889944894,,,
02.376,3.059040813,,,
02.378,3.245046324,,,
02.380,3.278865507,,,
02.382,3.43950663,,,
02.384,3.414142242,,,
02.386,3.143588772,,,
02.388,2.889944894,,,
02.390,2.644755812,,,
02.392,2.89839969,,,
02.394,2.813851731,,,
02.396,2.923764078,,,
02.398,3.101314793,,,
02.400,3.042131221,,,
02.402,3.363413467,,,
02.404,3.228136732,,,
02.406,3.084405201,,,
02.408,2.695484588,,,
02.410,2.534843465,,,
02.412,2.813851731,,,
02.414,2.6701202,,,
02.416,2.720848976,,,
02.418,2.966038058,,,
02.420,3.008312037,,,
02.422,3.261955915,,,
02.424,2.991402446,,,
02.426,2.873035302,,,
02.428,2.526388669,,,
02.430,2.416476322,,,
02.432,2.610936628,,,
02.434,2.653210608,,,
02.436,2.796942139,,,
02.438,2.830761323,,,
02.440,2.856125711,,,
02.442,3.092859997,,,
02.444,2.991402446,,,
02.446,2.873035302,,,
02.448,2.382657138,,,
02.450,2.44184071,,,
02.452,2.526388669,,,
02.454,2.543298261,,,
02.456,2.720848976,,,
02.458,2.805396935,,,
02.460,2.932218874,,,
02.462,3.109769589,,,
02.464,2.932218874,,,
02.466,2.805396935,,,
02.468,2.348837954,,,
02.470,2.458750302,,,
02.472,2.610936628,,,
02.474,2.636301016,,,
02.476,2.653210608,,,
02.478,2.754668159,,,
02.480,2.957583262,,,
02.482,3.118224385,,,
02.484,2.915309282,,,
02.486,2.796942139,,,
02.488,2.382657138,,,
02.490,2.484114689,,,
02.492,2.551753057,,,
02.494,2.636301016,,,
02.496,2.661665404,,,
02.498,2.822306527,,,
02.500,2.932218874,,,
02.502,3.059040813,,,
02.504,2.949128466,,,
02.506,2.805396935,,,
02.508,2.416476322,,,
02.510,2.517933873,,,
02.512,2.560207853,,,
02.514,2.509479077,,,
02.516,2.71239418,,,
02.518,2.847670915,,,
02.520,2.949128466,,,
02.522,3.008312037,,,
02.524,2.754668159,,,
02.526,2.661665404,,,
02.528,2.348837954,,,
02.530,2.534843465,,,
02.532,2.703939384,,,
02.534,2.610936628,,,
02.536,2.695484588,,,
02.538,2.813851731,,,
02.540,2.999857241,,,
02.542,3.109769589,,,
02.544,2.839216119,,,
02.546,2.720848976,,,
02.548,2.374202342,,,
02.550,2.568662649,,,
02.552,2.644755812,,,
02.554,2.594027037,,,
02.556,2.746213363,,,
02.558,2.839216119,,,
02.560,3.033676425,,,
02.562,3.075950405,,,
02.564,2.822306527,,,
02.566,2.6701202,,,
02.568,2.315018771,,,
02.570,2.568662649,,,
02.572,2.577117445,,,
02.574,2.661665404,,,
02.576,2.796942139,,,
02.578,2.805396935,,,
02.580,3.025221629,,,
02.582,2.98294765,,,
02.584,2.839216119,,,
02.586,2.62784622,,,
02.588,2.35729275,,,
02.590,2.551753057,,,
02.592,2.501024281,,,
02.594,2.602481833,,,
02.596,2.796942139,,,
02.598,2.796942139,,,
02.600,3.084405201,,,
02.602,3.042131221,,,
02.604,2.881490098,,,
02.606,2.484114689,,,
02.608,2.306563975,,,
02.610,2.517933873,,,
02.612,2.577117445,,,
02.614,2.560207853,,,
02.616,2.780032547,,,
02.618,2.813851731,,,
02.620,3.118224385,,,
02.622,3.059040813,,,
02.624,2.830761323,,,
02.626,2.534843465,,,
02.628,2.298109179,,,
02.630,2.475659894,,,
02.632,2.484114689,,,
02.634,2.636301016,,,
02.636,2.720848976,,,
02.638,2.796942139,,,
02.640,3.067495609,,,
02.642,3.008312037,,,
02.644,2.830761323,,,
02.646,2.492569485,,,
02.648,2.323473567,,,
02.650,2.551753057,,,
02.652,2.408021526,,,
02.654,2.517933873,,,
02.656,2.720848976,,,
02.658,2.754668159,,,
02.660,3.008312037,,,
02.662,2.923764078,,,
02.664,2.796942139,,,
02.666,2.484114689,,,
02.668,2.264289995,,,
02.670,2.467205098,,,
02.672,2.526388669,,,
02.674,2.585572241,,,
02.676,2.780032547,,,
02.678,2.737758568,,,
02.680,3.016766833,,,
02.682,3.008312037,,,
02.684,2.830761323,,,
02.686,2.433385914,,,
02.688,2.196651628,,,
02.690,2.44184071,,,
02.692,2.450295506,,,
02.694,2.551753057,,,
02.696,2.636301016,,,
02.698,2.856125711,,,
02.700,3.084405201,,,
02.702,2.999857241,,,
02.704,2.737758568,,,
02.706,2.475659894,,,
02.708,2.408021526,,,
02.710,2.610936628,,,
02.712,2.374202342,,,
02.714,2.560207853,,,
02.716,2.754668159,,,
02.718,2.788487343,,,
02.720,3.067495609,,,
02.722,2.906854486,,,
02.724,2.822306527,,,
02.726,2.391111934,,,
02.728,2.264289995,,,
02.730,2.551753057,,,
02.732,2.577117445,,,
02.734,2.754668159,,,
02.736,2.805396935,,,
02.738,2.813851731,,,
02.740,3.118224385,,,
02.742,2.932218874,,,
02.744,2.805396935,,,
02.746,2.416476322,,,
02.748,2.450295506,,,
02.750,2.534843465,,,
02.752,2.610936628,,,
02.754,2.703939384,,,
02.756,2.839216119,,,
02.758,2.949128466,,,
02.760,3.177407956,,,
02.762,2.932218874,,,
02.764,2.839216119,,,
02.766,2.492569485,,,
02.768,2.551753057,,,
02.770,2.636301016,,,
02.772,2.687029792,,,
02.774,2.788487343,,,
02.776,2.94067367,,,
02.778,3.101314793,,,
02.780,3.261955915,,,
02.782,3.025221629,,,
02.784,2.89839969,,,
02.786,2.526388669,,,
02.788,2.678574996,,,
02.790,2.729303772,,,
02.792,2.71239418,,,
02.794,2.796942139,,,
02.796,2.98294765,,,
02.798,3.109769589,,,
02.800,3.21122714,,,
02.802,3.059040813,,,
02.804,2.915309282,,,
02.806,2.509479077,,,
02.808,2.594027037,,,
02.810,2.720848976,,,
02.812,2.763122955,,,
02.814,2.763122955,,,
02.816,3.033676425,,,
02.818,3.084405201,,,
02.820,3.143588772,,,
02.822,2.864580507,,,
02.824,2.695484588,,,
02.826,2.264289995,,,
02.828,2.416476322,,,
02.830,2.585572241,,,
02.832,2.62784622,,,
02.834,2.780032547,,,
02.836,2.830761323,,,
02.838,3.042131221,,,
02.840,2.991402446,,,
02.842,2.805396935,,,
02.844,2.534843465,,,
02.846,2.306563975,,,
02.848,2.492569485,,,
02.850,2.560207853,,,
02.852,2.526388669,,,
02.854,2.788487343,,,
02.856,2.71239418,,,
02.858,2.932218874,,,
02.860,2.957583262,,,
02.862,2.864580507,,,
02.864,2.551753057,,,
02.866,2.255835199,,,
02.868,2.475659894,,,
02.870,2.509479077,,,
02.872,2.543298261,,,
02.874,2.678574996,,,
02.876,2.796942139,,,
02.878,3.008312037,,,
02.880,2.991402446,,,
02.882,2.71239418,,,
02.884,2.348837954,,,
02.886,2.162832444,,,
02.888,2.323473567,,,
02.890,2.39956673,,,
02.892,2.374202342,,,
02.894,2.492569485,,,
02.896,2.551753057,,,
02.898,2.805396935,,,
02.900,2.813851731,,,
02.902,2.594027037,,,
02.904,2.44184071,,,
02.906,2.306563975,,,
02.908,2.788487343,,,
02.910,2.999857241,,,
02.912,3.278865507,,,
02.914,3.726969692,,,
02.916,4.124345101,,,
02.918,4.547084898,,,
02.920,4.682361633,,,
02.922,4.673906837,,,
02.924,4.394898571,,,
02.926,3.98061357,,,
02.928,4.175073876,,,
02.930,4.115890305,,,
02.932,3.989068366,,,
02.934,3.972158774,,,
02.936,3.7100601,,,
02.938,3.726969692,,,
02.940,3.414142242,,,
02.942,2.991402446,,,
02.944,2.610936628,,,
02.946,2.247380403,,,
02.948,2.467205098,,,
02.950,2.458750302,,,
02.952,2.492569485,,,
02.954,2.577117445,,,
02.956,2.594027037,,,
02.958,2.822306527,,,
02.960,2.788487343,,,
02.962,2.687029792,,,
02.964,2.416476322,,,
02.966,2.340383159,,,
02.968,2.568662649,,,
02.970,2.551753057,,,
02.972,2.661665404,,,
02.974,2.644755812,,,
02.976,2.746213363,,,
02.978,2.974492854,,,
02.980,2.873035302,,,
02.982,2.780032547,,,
02.984,2.416476322,,,
02.986,2.264289995,,,
02.988,2.517933873,,,
02.990,2.39956673,,,
02.992,2.551753057,,,
02.994,2.763122955,,,
02.996,2.754668159,,,
02.998,2.991402446,,,
03.000,2.89839969,,,
03.002,2.687029792,,,
03.004,2.475659894,,,
03.006,2.255835199,,,
03.008,2.424931118,,,
03.010,2.517933873,,,
03.012,2.568662649,,,
03.014,2.602481833,,,
03.016,2.71239418,,,
03.018,2.974492854,,,
03.020,2.839216119,,,
03.022,2.687029792,,,
03.024,2.222016015,,,
03.026,2.289654383,,,
03.028,2.433385914,,,
03.030,2.365747546,,,
03.032,2.509479077,,,
03.034,2.602481833,,,
03.036,2.703939384,,,
03.038,2.94067367,,,
03.040,2.737758568,,,
03.042,2.661665404,,,
03.044,2.222016015,,,
03.046,2.205106424,,,
03.048,2.424931118,,,
03.050,2.416476322,,,
03.052,2.340383159,,,
03.054,2.661665404,,,
03.056,2.780032547,,,
03.058,2.89839969,,,
03.060,2.746213363,,,
03.062,2.534843465,,,
03.064,2.17128724,,,
03.066,2.238925607,,,
03.068,2.348837954,,,
03.070,2.365747546,,,
03.072,2.501024281,,,
03.074,2.594027037,,,
03.076,2.746213363,,,
03.078,2.839216119,,,
03.080,2.703939384,,,
03.082,2.475659894,,,
03.084,2.027555709,,,
03.086,2.264289995,,,
03.088,2.44184071,,,
03.090,2.382657138,,,
03.092,2.391111934,,,
03.094,2.602481833,,,
03.096,2.6701202,,,
03.098,2.822306527,,,
03.100,2.6701202,,,
03.102,2.475659894,,,
03.104,2.162832444,,,
03.106,2.306563975,,,
03.108,2.222016015,,,
03.110,2.44184071,,,
03.112,2.560207853,,,
03.114,2.610936628,,,
03.116,2.788487343,,,
03.118,2.906854486,,,
03.120,2.703939384,,,
03.122,2.458750302,,,
03.124,2.120558464,,,
03.126,2.391111934,,,
03.128,2.424931118,,,
03.130,2.475659894,,,
03.132,2.687029792,,,
03.134,2.788487343,,,
03.136,2.847670915,,,
03.138,2.889944894,,,
03.140,2.695484588,,,
03.142,2.585572241,,,
03.144,2.315018771,,,
03.146,2.458750302,,,
03.148,2.543298261,,,
03.150,2.62784622,,,
03.152,2.737758568,,,
03.154,2.881490098,,,
03.156,2.999857241,,,
03.158,2.999857241,,,
03.160,2.830761323,,,
03.162,2.492569485,,,
03.164,2.408021526,,,
03.166,2.577117445,,,
03.168,2.560207853,,,
03.170,2.594027037,,,
03.172,2.746213363,,,
03.174,2.856125711,,,
03.176,3.152043568,,,
03.178,3.008312037,,,
03.180,2.754668159,,,
03.182,2.484114689,,,
03.184,2.12901326,,,
03.186,2.501024281,,,
03.188,2.526388669,,,
03.190,2.543298261,,,
03.192,2.644755812,,,
03.194,2.687029792,,,
03.196,2.949128466,,,
03.198,2.847670915,,,
03.200,2.619391424,,,
03.202,2.255835199,,,
03.204,2.002191321,,,
03.206,2.255835199,,,
03.208,2.289654383,,,
03.210,2.298109179,,,
03.212,2.416476322,,,
03.214,2.543298261,,,
03.216,2.763122955,,,
03.218,2.602481833,,,
03.220,2.433385914,,,
03.222,2.12901326,,,
03.224,1.90073377,,,
03.226,2.112103668,,,
03.228,2.078284485,,,
03.230,2.103648872,,,
03.232,2.281199587,,,
03.234,2.408021526,,,
03.236,2.644755812,,,
03.238,2.509479077,,,
03.240,2.281199587,,,
03.242,2.019100913,,,
03.244,1.799276219,,,
03.246,2.069829689,,,
03.248,2.002191321,,,
03.250,2.145922852,,,
03.252,2.255835199,,,
03.254,2.348837954,,,
03.256,2.6701202,,,
03.258,2.509479077,,,
03.260,2.35729275,,,
03.262,2.061374893,,,
03.264,1.790821423,,,
03.266,2.052920097,,,
03.268,2.019100913,,,
03.270,2.078284485,,,
03.272,2.205106424,,,
03.274,2.255835199,,,
03.276,2.560207853,,,
03.278,2.416476322,,,
03.280,2.289654383,,,
03.282,1.926098158,,,
03.284,1.866914586,,,
03.286,2.069829689,,,
03.288,2.086739281,,,
03.290,2.145922852,,,
03.292,2.238925607,,,
03.294,2.331928363,,,
03.296,2.551753057,,,
03.298,2.35729275,,,
03.300,2.222016015,,,
03.302,1.866914586,,,
03.304,1.90073377,,,
03.306,2.069829689,,,
03.308,2.002191321,,,
03.310,2.095194076,,,
03.312,2.272744791,,,
03.314,2.323473567,,,
03.316,2.534843465,,,
03.318,2.306563975,,,
03.320,2.196651628,,,
03.322,1.909188566,,,
03.324,1.866914586,,,
03.326,1.968372137,,,
03.328,2.061374893,,,
03.330,2.095194076,,,
03.332,2.179742036,,,
03.334,2.298109179,,,
03.336,2.467205098,,,
03.338,2.264289995,,,
03.340,2.205106424,,,
03.342,1.816185811,,,
03.344,1.94300775,,,
03.346,2.095194076,,,
03.348,1.909188566,,,
03.350,2.086739281,,,
03.352,2.188196832,,,
03.354,2.298109179,,,
03.356,2.450295506,,,
03.358,2.289654383,,,
03.360,2.12901326,,,
03.362,1.697818668,,,
03.364,1.90073377,,,
03.366,1.959917341,,,
03.368,1.90073377,,,
03.370,1.976826933,,,
03.372,2.17128724,,,
03.374,2.340383159,,,
03.376,2.517933873,,,
03.378,2.264289995,,,
03.380,2.137468056,,,
03.382,1.740092647,,,
03.384,1.85845979,,,
03.386,1.909188566,,,
03.388,1.959917341,,,
03.390,2.027555709,,,
03.392,2.205106424,,,
03.394,2.323473567,,,
03.396,2.39956673,,,
03.398,2.196651628,,,
03.400,2.095194076,,,
03.402,1.67245428,,,
03.404,1.90073377,,,
03.406,1.866914586,,,
03.408,1.892278974,,,
03.410,1.993736525,,,
03.412,2.247380403,,,
03.414,2.315018771,,,
03.416,2.39956673,,,
03.418,2.120558464,,,
03.420,1.976826933,,,
03.422,1.714728259,,,
03.424,1.807731015,,,
03.426,1.926098158,,,
03.428,1.917643362,,,
03.430,2.052920097,,,
03.432,2.154377648,,,
03.434,2.340383159,,,
03.436,2.382657138,,,
03.438,2.145922852,,,
03.440,1.94300775,,,
03.442,1.647089892,,,
03.444,1.833095402,,,
03.446,1.841550198,,,
03.448,1.883824178,,,
03.450,2.052920097,,,
03.452,2.095194076,,,
03.454,2.348837954,,,
03.456,2.331928363,,,
03.458,2.179742036,,,
03.460,1.841550198,,,
03.462,1.604815912,,,
03.464,1.824640607,,,
03.466,1.892278974,,,
03.468,1.917643362,,,
03.470,1.993736525,,,
03.472,2.137468056,,,
03.474,2.35729275,,,
03.476,2.331928363,,,
03.478,2.112103668,,,
03.480,1.799276219,,,
03.482,1.579451524,,,
03.484,1.790821423,,,
03.486,1.90073377,,,
03.488,1.875369382,,,
03.490,2.052920097,,,
03.492,2.12901326,,,
03.494,2.35729275,,,
03.496,2.348837954,,,
03.498,2.036010505,,,
03.500,1.824640607,,,
03.502,1.638635096,,,
03.504,1.807731015,,,
03.506,1.841550198,,,
03.508,1.892278974,,,
03.510,2.019100913,,,
03.512,2.069829689,,,
03.514,2.35729275,,,
03.516,2.298109179,,,
03.518,2.078284485,,,
03.520,1.706273463,,,
03.522,1.613270708,,,
03.524,1.782366627,,,
03.526,1.841550198,,,
03.528,1.883824178,,,
03.530,2.036010505,,,
03.532,2.052920097,,,
03.534,2.391111934,,,
03.536,2.21356122,,,
03.538,2.12901326,,,
03.540,1.748547443,,,
03.542,1.570996728,,,
03.544,1.790821423,,,
03.546,1.850004994,,,
03.548,1.866914586,,,
03.550,2.019100913,,,
03.552,2.179742036,,,
03.554,2.458750302,,,
03.556,2.247380403,,,
03.558,1.951462546,,,
03.560,1.697818668,,,
03.562,1.562541933,,,
03.564,1.841550198,,,
03.566,1.773911831,,,
03.568,1.883824178,,,
03.570,2.112103668,,,
03.572,2.120558464,,,
03.574,2.382657138,,,
03.576,2.17128724,,,
03.578,2.078284485,,,
03.580,1.773911831,,,
03.582,1.697818668,,,
03.584,1.841550198,,,
03.586,1.934552954,,,
03.588,2.027555709,,,
03.590,2.154377648,,,
03.592,2.196651628,,,
03.594,2.534843465,,,
03.596,2.391111934,,,
03.598,2.205106424,,,
03.600,1.816185811,,,
03.602,1.833095402,,,
03.604,2.010646117,,,
03.606,2.036010505,,,
03.608,2.078284485,,,
03.610,2.238925607,,,
03.612,2.331928363,,,
03.614,2.526388669,,,
03.616,2.340383159,,,
03.618,2.196651628,,,
03.620,1.850004994,,,
03.622,1.799276219,,,
03.624,1.934552954,,,
03.626,2.052920097,,,
03.628,2.036010505,,,
03.630,2.154377648,,,
03.632,2.35729275,,,
03.634,2.509479077,,,
03.636,2.323473567,,,
03.638,2.095194076,,,
03.640,1.731637851,,,
03.642,1.680909076,,,
03.644,1.883824178,,,
03.646,1.833095402,,,
03.648,1.926098158,,,
03.650,2.078284485,,,
03.652,2.196651628,,,
03.654,2.35729275,,,
03.656,2.145922852,,,
03.658,1.985281729,,,
03.660,1.579451524,,,
03.662,1.731637851,,,
03.664,1.740092647,,,
03.666,1.799276219,,,
03.668,1.90073377,,,
03.670,2.044465301,,,
03.672,2.21356122,,,
03.674,2.247380403,,,
03.676,2.112103668,,,
03.678,1.934552954,,,
03.680,1.511813157,,,
03.682,1.638635096,,,
03.684,1.773911831,,,
03.686,1.757002239,,,
03.688,1.94300775,,,
03.690,1.993736525,,,
03.692,2.196651628,,,
03.694,2.230470811,,,
03.696,2.019100913,,,
03.698,1.816185811,,,
03.700,1.427265198,,,
03.702,1.604815912,,,
03.704,1.621725504,,,
03.706,1.714728259,,,
03.708,1.824640607,,,
03.710,1.85845979,,,
03.712,2.002191321,,,
03.714,1.976826933,,,
03.716,1.807731015,,,
03.718,1.647089892,,,
03.720,1.35962683,,,
03.722,1.697818668,,,
03.724,1.866914586,,,
03.726,2.12901326,,,
03.728,2.594027037,,,
03.730,2.839216119,,,
03.732,3.515599794,,,
03.734,3.625512141,,,
03.736,3.617057345,,,
03.738,3.574783365,,,
03.740,3.414142242,,,
03.742,3.507144998,,,
03.744,3.608602549,,,
03.746,3.515599794,,,
03.748,3.490235406,,,
03.750,3.329594283,,,
03.752,3.354958671,,,
03.754,3.126679181,,,
03.756,2.746213363,,,
03.758,2.078284485,,,
03.760,1.731637851,,,
03.762,1.816185811,,,
03.764,1.782366627,,,
03.766,1.748547443,,,
03.768,1.909188566,,,
03.770,1.959917341,,,
03.772,2.095194076,,,
03.774,1.976826933,,,
03.776,1.757002239,,,
03.778,1.477993973,,,
03.780,1.300443259,,,
03.782,1.545632341,,,
03.784,1.6301803,,,
03.786,1.714728259,,,
03.788,1.959917341,,,
03.790,1.951462546,,,
03.792,2.179742036,,,
03.794,2.120558464,,,
03.796,1.993736525,,,
03.798,1.67245428,,,
03.800,1.427265198,,,
03.802,1.680909076,,,
03.804,1.680909076,,,
03.806,1.824640607,,,
03.808,1.951462546,,,
03.810,1.993736525,,,
03.812,2.112103668,,,
03.814,2.196651628,,,
03.816,2.044465301,,,
03.818,1.67245428,,,
03.820,1.40190081,,,
03.822,1.697818668,,,
03.824,1.790821423,,,
03.826,1.799276219,,,
03.828,1.875369382,,,
03.830,1.985281729,,,
03.832,2.196651628,,,
03.834,2.137468056,,,
03.836,1.976826933,,,
03.838,1.647089892,,,
03.840,1.537177545,,,
03.842,1.714728259,,,
03.844,1.773911831,,,
03.846,1.866914586,,,
03.848,1.926098158,,,
03.850,1.926098158,,,
03.852,2.188196832,,,
03.854,2.154377648,,,
03.856,1.959917341,,,
03.858,1.596361116,,,
03.860,1.596361116,,,
03.862,1.790821423,,,
03.864,1.613270708,,,
03.866,1.90073377,,,
03.868,2.061374893,,,
03.870,2.052920097,,,
03.872,2.35729275,,,
03.874,2.103648872,,,
03.876,1.94300775,,,
03.878,1.613270708,,,
03.880,1.663999484,,,
03.882,1.790821423,,,
03.884,1.875369382,,,
03.886,1.833095402,,,
03.888,1.917643362,,,
03.890,2.052920097,,,
03.892,2.340383159,,,
03.894,2.120558464,,,
03.896,2.061374893,,,
03.898,1.570996728,,,
03.900,1.757002239,,,
03.902,1.90073377,,,
03.904,1.833095402,,,
03.906,1.90073377,,,
03.908,2.036010505,,,
03.910,2.179742036,,,
03.912,2.348837954,,,
03.914,2.154377648,,,
03.916,2.069829689,,,
03.918,1.655544688,,,
03.920,1.757002239,,,
03.922,1.883824178,,,
03.924,1.909188566,,,
03.926,1.976826933,,,
03.928,2.179742036,,,
03.930,2.238925607,,,
03.932,2.416476322,,,
03.934,2.230470811,,,
03.936,2.162832444,,,
03.938,1.799276219,,,
03.940,1.883824178,,,
03.942,1.959917341,,,
03.944,2.010646117,,,
03.946,2.036010505,,,
03.948,2.222016015,,,
03.950,2.374202342,,,
03.952,2.534843465,,,
03.954,2.323473567,,,
03.956,2.205106424,,,
03.958,1.841550198,,,
03.960,1.968372137,,,
03.962,1.985281729,,,
03.964,2.179742036,,,
03.966,2.289654383,,,
03.968,2.35729275,,,
03.970,2.534843465,,,
03.972,2.543298261,,,
03.974,2.374202342,,,
03.976,2.264289995,,,
03.978,1.892278974,,,
03.980,2.078284485,,,
03.982,2.230470811,,,
03.984,2.145922852,,,
03.986,2.281199587,,,
03.988,2.374202342,,,
03.990,2.661665404,,,
03.992,2.703939384,,,
03.994,2.450295506,,,
03.996,2.205106424,,,
03.998,1.883824178,,,
04.000,2.103648872,,,
04.002,2.086739281,,,
04.004,2.137468056,,,
04.006,2.264289995,,,
04.008,2.281199587,,,
04.010,2.594027037,,,
04.012,2.551753057,,,
04.014,2.272744791,,,
04.016,1.993736525,,,
04.018,1.740092647,,,
04.020,1.909188566,,,
04.022,1.968372137,,,
04.024,1.985281729,,,
04.026,2.137468056,,,
04.028,2.12901326,,,
04.030,2.331928363,,,
04.032,2.289654383,,,
04.034,2.078284485,,,
04.036,1.748547443,,,
04.038,1.528722749,,,
04.040,1.782366627,,,
04.042,1.807731015,,,
04.044,1.85845979,,,
04.046,1.959917341,,,
04.048,2.010646117,,,
04.050,2.222016015,,,
04.052,2.205106424,,,
04.054,1.892278974,,,
04.056,1.67245428,,,
04.058,1.40190081,,,
04.060,1.663999484,,,
04.062,1.714728259,,,
04.064,1.782366627,,,
04.066,1.909188566,,,
04.068,1.959917341,,,
04.070,2.238925607,,,
04.072,2.137468056,,,
04.074,1.883824178,,,
04.076,1.579451524,,,
04.078,1.461084381,,,
04.080,1.765457035,,,
04.082,1.689363872,,,
04.084,1.740092647,,,
04.086,1.875369382,,,
04.088,1.934552954,,,
04.090,2.196651628,,,
04.092,2.137468056,,,
04.094,1.909188566,,,
04.096,1.689363872,,,
04.098,1.494903565,,,
04.100,1.706273463,,,
04.102,1.663999484,,,
04.104,1.748547443,,,
04.106,1.917643362,,,
04.108,1.976826933,,,
04.110,2.298109179,,,
04.112,2.17128724,,,
04.114,1.85845979,,,
04.116,1.6301803,,,
04.118,1.461084381,,,
04.120,1.638635096,,,
04.122,1.689363872,,,
04.124,1.790821423,,,
04.126,1.917643362,,,
04.128,1.917643362,,,
04.130,2.230470811,,,
04.132,2.154377648,,,
04.134,1.976826933,,,
04.136,1.6301803,,,
04.138,1.554087137,,,
04.140,1.723183055,,,
04.142,1.655544688,,,
04.144,1.782366627,,,
04.146,1.94300775,,,
04.148,1.976826933,,,
04.150,2.154377648,,,
04.152,2.086739281,,,
04.154,1.951462546,,,
04.156,1.596361116,,,
04.158,1.528722749,,,
04.160,1.647089892,,,
04.162,1.67245428,,,
04.164,1.773911831,,,
04.166,1.968372137,,,
04.168,2.019100913,,,
04.170,2.222016015,,,
04.172,2.044465301,,,
04.174,1.976826933,,,
04.176,1.554087137,,,
04.178,1.477993973,,,
04.180,1.723183055,,,
04.182,1.773911831,,,
04.184,1.85845979,,,
04.186,2.036010505,,,
04.188,1.959917341,,,
04.190,2.21356122,,,
04.192,2.078284485,,,
04.194,1.959917341,,,
04.196,1.554087137,,,
04.198,1.613270708,,,
04.200,1.67245428,,,
04.202,1.697818668,,,
04.204,1.866914586,,,
04.206,2.019100913,,,
04.208,2.027555709,,,
04.210,2.230470811,,,
04.212,2.052920097,,,
04.214,1.866914586,,,
04.216,1.528722749,,,
04.218,1.621725504,,,
04.220,1.689363872,,,
04.222,1.731637851,,,
04.224,1.833095402,,,
04.226,1.799276219,,,
04.228,2.086739281,,,
04.230,2.154377648,,,
04.232,1.993736525,,,
04.234,1.883824178,,,
04.236,1.342717238,,,
04.238,1.655544688,,,
04.240,1.799276219,,,
04.242,1.647089892,,,
04.244,1.799276219,,,
04.246,2.002191321,,,
04.248,2.120558464,,,
04.250,2.196651628,,,
04.252,1.94300775,,,
04.254,1.799276219,,,
04.256,1.40190081,,,
04.258,1.647089892,,,
04.260,1.706273463,,,
04.262,1.790821423,,,
04.264,1.866914586,,,
04.266,1.94300775,,,
04.268,2.179742036,,,
04.270,2.145922852,,,
04.272,1.94300775,,,
04.274,1.689363872,,,
04.276,1.393446014,,,
04.278,1.596361116,,,
04.280,1.663999484,,,
04.282,1.723183055,,,
04.284,1.85845979,,,
04.286,1.993736525,,,
04.288,2.17128724,,,
04.290,2.145922852,,,
04.292,1.959917341,,,
04.294,1.748547443,,,
04.296,1.384991218,,,
04.298,1.570996728,,,
04.300,1.697818668,,,
04.302,1.723183055,,,
04.304,1.824640607,,,
04.306,1.959917341,,,
04.308,2.145922852,,,
04.310,2.205106424,,,
04.312,1.934552954,,,
04.314,1.67245428,,,
04.316,1.40190081,,,
04.318,1.638635096,,,
04.320,1.689363872,,,
04.322,1.731637851,,,
04.324,1.94300775,,,
04.326,1.959917341,,,
04.328,2.21356122,,,
04.330,2.145922852,,,
04.332,1.90073377,,,
04.334,1.663999484,,,
04.336,1.444174789,,,
04.338,1.748547443,,,
04.340,1.706273463,,,
04.342,1.689363872,,,
04.344,1.824640607,,,
04.346,1.94300775,,,
04.348,2.205106424,,,
04.350,2.103648872,,,
04.352,1.934552954,,,
04.354,1.689363872,,,
04.356,1.368081626,,,
04.358,1.680909076,,,
04.360,1.638635096,,,
04.362,1.782366627,,,
04.364,1.875369382,,,
04.366,1.926098158,,,
04.368,2.196651628,,,
04.370,2.17128724,,,
04.372,1.909188566,,,
04.374,1.638635096,,,
04.376,1.562541933,,,
04.378,1.740092647,,,
04.380,1.570996728,,,
04.382,1.697818668,,,
04.384,1.85845979,,,
04.386,2.010646117,,,
04.388,2.205106424,,,
04.390,2.019100913,,,
04.392,1.934552954,,,
04.394,1.604815912,,,
04.396,1.562541933,,,
04.398,1.714728259,,,
04.400,1.596361116,,,
04.402,1.807731015,,,
04.404,1.875369382,,,
04.406,1.883824178,,,
04.408,2.264289995,,,
04.410,2.205106424,,,
04.412,1.959917341,,,
04.414,1.604815912,,,
04.416,1.461084381,,,
04.418,1.680909076,,,
04.420,1.655544688,,,
04.422,1.748547443,,,
04.424,1.917643362,,,
04.426,2.010646117,,,
04.428,2.289654383,,,
04.430,2.12901326,,,
04.432,1.926098158,,,
04.434,1.6301803,,,
04.436,1.579451524,,,
04.438,1.740092647,,,
04.440,1.799276219,,,
04.442,1.850004994,,,
04.444,2.044465301,,,
04.446,2.036010505,,,
04.448,2.374202342,,,
04.450,2.154377648,,,
04.452,2.061374893,,,
04.454,1.706273463,,,
04.456,1.740092647,,,
04.458,1.90073377,,,
04.460,1.90073377,,,
04.462,2.052920097,,,
04.464,2.17128724,,,
04.466,2.230470811,,,
04.468,2.475659894,,,
04.470,2.323473567,,,
04.472,2.078284485,,,
04.474,1.850004994,,,
04.476,1.740092647,,,
04.478,1.875369382,,,
04.480,1.833095402,,,
04.482,1.985281729,,,
04.484,2.061374893,,,
04.486,2.264289995,,,
04.488,2.467205098,,,
04.490,2.238925607,,,
04.492,2.112103668,,,
04.494,1.647089892,,,
04.496,1.765457035,,,
04.498,1.909188566,,,
04.500,1.917643362,,,
04.502,1.934552954,,,
04.504,2.044465301,,,
04.506,2.196651628,,,
04.508,2.35729275,,,
04.510,2.052920097,,,
04.512,1.976826933,,,
04.514,1.528722749,,,
04.516,1.545632341,,,
04.518,1.740092647,,,
04.520,1.782366627,,,
04.522,1.866914586,,,
04.524,1.993736525,,,
04.526,2.086739281,,,
04.528,2.238925607,,,
04.530,2.052920097,,,
04.532,1.917643362,,,
04.534,1.537177545,,,
04.536,1.647089892,,,
04.538,1.697818668,,,
04.540,1.714728259,,,
04.542,1.866914586,,,
04.544,1.993736525,,,
04.546,2.21356122,,,
04.548,2.21356122,,,
04.550,2.044465301,,,
04.552,1.807731015,,,
04.554,1.427265198,,,
04.556,1.613270708,,,
04.558,1.748547443,,,
04.560,1.782366627,,,
04.562,1.917643362,,,
04.564,1.875369382,,,
04.566,2.112103668,,,
04.568,2.179742036,,,
04.570,1.833095402,,,
04.572,1.562541933,,,
04.574,1.190530911,,,
04.576,1.452629585,,,
04.578,1.444174789,,,
04.580,1.58790632,,,
04.582,1.723183055,,,
04.584,1.85845979,,,
04.586,2.281199587,,,
04.588,2.467205098,,,
04.590,2.408021526,,,
04.592,2.35729275,,,
04.594,2.391111934,,,
04.596,2.999857241,,,
04.598,3.219681936,,,
04.600,2.052920097,,,
04.602,2.21356122,,,
04.604,2.17128724,,,
04.606,1.976826933,,,
04.608,1.562541933,,,
04.610,1.325807646,,,
04.612,1.477993973,,,
04.614,1.444174789,,,
04.616,1.520267953,,,
04.618,1.714728259,,,
04.620,1.740092647,,,
04.622,2.019100913,,,
04.624,1.993736525,,,
04.626,1.790821423,,,
04.628,1.494903565,,,
04.630,1.325807646,,,
04.632,1.647089892,,,
04.634,1.604815912,,,
04.636,1.663999484,,,
04.638,1.883824178,,,
04.640,1.94300775,,,
04.642,2.154377648,,,
04.644,2.205106424,,,
04.646,1.841550198,,,
04.648,1.520267953,,,
04.650,1.393446014,,,
04.652,1.731637851,,,
04.654,1.520267953,,,
04.656,1.714728259,,,
04.658,1.841550198,,,
04.660,1.883824178,,,
04.662,2.17128724,,,
04.664,2.112103668,,,
04.666,1.951462546,,,
04.668,1.570996728,,,
04.670,1.452629585,,,
04.672,1.638635096,,,
04.674,1.6301803,,,
04.676,1.782366627,,,
04.678,1.883824178,,,
04.680,1.94300775,,,
04.682,2.145922852,,,
04.684,2.095194076,,,
04.686,1.917643362,,,
04.688,1.554087137,,,
04.690,1.511813157,,,
04.692,1.680909076,,,
04.694,1.67245428,,,
04.696,1.731637851,,,
04.698,1.917643362,,,
04.700,1.934552954,,,
04.702,2.272744791,,,
04.704,2.17128724,,,
04.706,2.019100913,,,
04.708,1.6301803,,,
04.710,1.655544688,,,
04.712,1.689363872,,,
04.714,1.723183055,,,
04.716,1.773911831,,,
04.718,1.993736525,,,
04.720,2.036010505,,,
04.722,2.247380403,,,
04.724,2.086739281,,,
04.726,1.985281729,,,
04.728,1.562541933,,,
04.730,1.58790632,,,
04.732,1.731637851,,,
04.734,1.757002239,,,
04.736,1.90073377,,,
04.738,1.934552954,,,
04.740,2.145922852,,,
04.742,2.348837954,,,
04.744,2.137468056,,,
04.746,2.027555709,,,
04.748,1.67245428,,,
04.750,1.663999484,,,
04.752,1.714728259,,,
04.754,1.892278974,,,
04.756,1.951462546,,,
04.758,2.078284485,,,
04.760,2.306563975,,,
04.762,2.382657138,,,
04.764,2.17128724,,,
04.766,2.095194076,,,
04.768,1.765457035,,,
04.770,1.841550198,,,
04.772,1.909188566,,,
04.774,2.044465301,,,
04.776,2.12901326,,,
04.778,2.205106424,,,
04.780,2.331928363,,,
04.782,2.526388669,,,
04.784,2.416476322,,,
04.786,2.289654383,,,
04.788,1.765457035,,,
04.790,1.934552954,,,
04.792,2.010646117,,,
04.794,2.137468056,,,
04.796,2.255835199,,,
04.798,2.340383159,,,
04.800,2.501024281,,,
04.802,2.687029792,,,
04.804,2.450295506,,,
04.806,2.331928363,,,
04.808,1.850004994,,,
04.810,2.154377648,,,
04.812,2.264289995,,,
04.814,2.230470811,,,
04.816,2.35729275,,,
04.818,2.424931118,,,
04.820,2.71239418,,,
04.822,2.847670915,,,
04.824,2.602481833,,,
04.826,2.323473567,,,
04.828,1.993736525,,,
04.830,2.230470811,,,
04.832,2.238925607,,,
04.834,2.272744791,,,
04.836,2.458750302,,,
04.838,2.509479077,,,
04.840,2.805396935,,,
04.842,2.71239418,,,
04.844,2.450295506,,,
04.846,2.17128724,,,
04.848,1.926098158,,,
04.850,2.112103668,,,
04.852,2.230470811,,,
04.854,2.230470811,,,
04.856,2.340383159,,,
04.858,2.374202342,,,
04.860,2.543298261,,,
04.862,2.568662649,,,
04.864,2.298109179,,,
04.866,2.010646117,,,
04.868,1.757002239,,,
04.870,1.94300775,,,
04.872,2.036010505,,,
04.874,2.027555709,,,
04.876,2.222016015,,,
04.878,2.247380403,,,
04.880,2.416476322,,,
04.882,2.39956673,,,
04.884,2.137468056,,,
04.886,1.875369382,,,
04.888,1.613270708,,,
04.890,1.883824178,,,
04.892,1.892278974,,,
04.894,1.993736525,,,
04.896,2.044465301,,,
04.898,2.230470811,,,
04.900,2.450295506,,,
04.902,2.424931118,,,
04.904,2.205106424,,,
04.906,1.850004994,,,
04.908,1.621725504,,,
04.910,1.875369382,,,
04.912,1.883824178,,,
04.914,1.909188566,,,
04.916,2.052920097,,,
04.918,2.120558464,,,
04.920,2.433385914,,,
04.922,2.365747546,,,
04.924,2.21356122,,,
04.926,1.824640607,,,
04.928,1.67245428,,,
04.930,1.833095402,,,
04.932,1.85845979,,,
04.934,1.959917341,,,
04.936,2.145922852,,,
04.938,2.222016015,,,
04.940,2.424931118,,,
04.942,2.35729275,,,
04.944,2.103648872,,,
04.946,1.816185811,,,
04.948,1.663999484,,,
04.950,2.010646117,,,
04.952,1.90073377,,,
04.954,1.934552954,,,
04.956,2.052920097,,,
04.958,2.095194076,,,
04.960,2.416476322,,,
04.962,2.323473567,,,
04.964,2.145922852,,,
04.966,1.816185811,,,
04.968,1.765457035,,,
04.970,1.883824178,,,
04.972,1.917643362,,,
04.974,2.044465301,,,
04.976,2.179742036,,,
04.978,2.238925607,,,
04.980,2.44184071,,,
04.982,2.264289995,,,
04.984,2.205106424,,,
04.986,1.790821423,,,
04.988,1.790821423,,,
04.990,1.976826933,,,
04.992,1.90073377,,,
04.994,2.179742036,,,
04.996,2.154377648,,,
04.998,2.272744791,,,
05.000,2.534843465,,,
05.002,2.323473567,,,
05.004,2.162832444,,,
05.006,1.833095402,,,
05.008,1.765457035,,,
05.010,2.019100913,,,
05.012,2.019100913,,,
05.014,2.162832444,,,
05.016,2.120558464,,,
05.018,2.247380403,,,
05.020,2.543298261,,,
05.022,2.272744791,,,
05.024,2.179742036,,,
05.026,1.883824178,,,
05.028,1.883824178,,,
05.030,1.959917341,,,
05.032,1.959917341,,,
05.034,2.044465301,,,
05.036,2.247380403,,,
05.038,2.323473567,,,
05.040,2.543298261,,,
05.042,2.340383159,,,
05.044,2.196651628,,,
05.046,1.790821423,,,
05.048,1.799276219,,,
05.050,1.883824178,,,
05.052,1.959917341,,,
05.054,2.120558464,,,
05.056,2.331928363,,,
05.058,2.365747546,,,
05.060,2.484114689,,,
05.062,2.298109179,,,
05.064,2.17128724,,,
05.066,1.748547443,,,
05.068,1.850004994,,,
05.070,1.976826933,,,
05.072,2.010646117,,,
05.074,2.154377648,,,
05.076,2.281199587,,,
05.078,2.424931118,,,
05.080,2.467205098,,,
05.082,2.298109179,,,
05.084,2.162832444,,,
05.086,1.816185811,,,
05.088,1.976826933,,,
05.090,1.985281729,,,
05.092,2.036010505,,,
05.094,2.12901326,,,
05.096,2.323473567,,,
05.098,2.458750302,,,
05.100,2.44184071,,,
05.102,2.289654383,,,
05.104,2.154377648,,,
05.106,1.765457035,,,
05.108,1.993736525,,,
05.110,1.976826933,,,
05.112,2.010646117,,,
05.114,2.196651628,,,
05.116,2.281199587,,,
05.118,2.551753057,,,
05.120,2.484114689,,,
05.122,2.323473567,,,
05.124,2.010646117,,,
05.126,1.748547443,,,
05.128,1.968372137,,,
05.130,1.993736525,,,
05.132,1.926098158,,,
05.134,2.21356122,,,
05.136,2.264289995,,,
05.138,2.44184071,,,
05.140,2.416476322,,,
05.142,2.315018771,,,
05.144,2.027555709,,,
05.146,1.714728259,,,
05.148,1.993736525,,,
05.150,1.993736525,,,
05.152,2.061374893,,,
05.154,2.272744791,,,
05.156,2.222016015,,,
05.158,2.492569485,,,
05.160,2.458750302,,,
05.162,2.298109179,,,
05.164,2.052920097,,,
05.166,1.866914586,,,
05.168,2.019100913,,,
05.170,2.103648872,,,
05.172,2.179742036,,,
05.174,2.289654383,,,
05.176,2.382657138,,,
05.178,2.6701202,,,
05.180,2.636301016,,,
05.182,2.340383159,,,
05.184,2.078284485,,,
05.186,1.875369382,,,
05.188,2.086739281,,,
05.190,2.086739281,,,
05.192,2.154377648,,,
05.194,2.408021526,,,
05.196,2.458750302,,,
05.198,2.678574996,,,
05.200,2.602481833,,,
05.202,2.408021526,,,
05.204,2.154377648,,,
05.206,1.909188566,,,
05.208,2.196651628,,,
05.210,2.247380403,,,
05.212,2.281199587,,,
05.214,2.458750302,,,
05.216,2.661665404,,,
05.218,2.813851731,,,
05.220,2.695484588,,,
05.222,2.509479077,,,
05.224,2.238925607,,,
05.226,2.010646117,,,
05.228,2.348837954,,,
05.230,2.264289995,,,
05.232,2.408021526,,,
05.234,2.501024281,,,
05.236,2.534843465,,,
05.238,2.788487343,,,
05.240,2.720848976,,,
05.242,2.543298261,,,
05.244,2.196651628,,,
05.246,2.019100913,,,
05.248,2.315018771,,,
05.250,2.281199587,,,
05.252,2.348837954,,,
05.254,2.458750302,,,
05.256,2.374202342,,,
05.258,2.822306527,,,
05.260,2.661665404,,,
05.262,2.382657138,,,
05.264,2.061374893,,,
05.266,2.002191321,,,
05.268,2.052920097,,,
05.270,2.112103668,,,
05.272,2.196651628,,,
05.274,2.374202342,,,
05.276,2.39956673,,,
05.278,2.661665404,,,
05.280,2.509479077,,,
05.282,2.39956673,,,
05.284,1.959917341,,,
05.286,1.976826933,,,
05.288,2.145922852,,,
05.290,2.145922852,,,
05.292,2.036010505,,,
05.294,2.281199587,,,
05.296,2.424931118,,,
05.298,2.737758568,,,
05.300,2.509479077,,,
05.302,2.391111934,,,
05.304,1.926098158,,,
05.306,1.926098158,,,
05.308,2.12901326,,,
05.310,2.179742036,,,
05.312,2.289654383,,,
05.314,2.315018771,,,
05.316,2.331928363,,,
05.318,2.602481833,,,
05.320,2.44184071,,,
05.322,2.323473567,,,
05.324,1.824640607,,,
05.326,1.765457035,,,
05.328,1.917643362,,,
05.330,1.926098158,,,
05.332,1.985281729,,,
05.334,2.238925607,,,
05.336,2.382657138,,,
05.338,2.492569485,,,
05.340,2.467205098,,,
05.342,2.501024281,,,
05.344,2.306563975,,,
05.346,2.661665404,,,
05.348,2.999857241,,,
05.350,3.270410711,,,
05.352,3.633966937,,,
05.354,3.93833959,,,
05.356,4.259621836,,,
05.358,4.361079387,,,
05.360,4.073616325,,,
05.362,3.997523162,,,
05.364,3.304229895,,,
05.366,3.414142242,,,
05.368,3.304229895,,,
05.370,3.135133976,,,
05.372,3.008312037,,,
05.374,2.932218874,,,
05.376,2.856125711,,,
05.378,2.805396935,,,
05.380,2.467205098,,,
05.382,2.35729275,,,
05.384,1.85845979,,,
05.386,1.934552954,,,
05.388,2.019100913,,,
05.390,2.052920097,,,
05.392,2.21356122,,,
05.394,2.289654383,,,
05.396,2.501024281,,,
05.398,2.391111934,,,
05.400,2.289654383,,,
05.402,2.162832444,,,
05.404,1.790821423,,,
05.406,1.959917341,,,
05.408,2.061374893,,,
05.410,2.21356122,,,
05.412,2.348837954,,,
05.414,2.348837954,,,
05.416,2.619391424,,,
05.418,2.687029792,,,
05.420,2.35729275,,,
05.422,2.247380403,,,
05.424,1.959917341,,,
05.426,2.145922852,,,
05.428,2.145922852,,,
05.430,2.230470811,,,
05.432,2.458750302,,,
05.434,2.526388669,,,
05.436,2.661665404,,,
05.438,2.703939384,,,
05.440,2.450295506,,,
05.442,2.188196832,,,
05.444,1.94300775,,,
05.446,2.272744791,,,
05.448,2.331928363,,,
05.450,2.230470811,,,
05.452,2.484114689,,,
05.454,2.475659894,,,
05.456,2.873035302,,,
05.458,2.771577751,,,
05.460,2.501024281,,,
05.462,2.281199587,,,
05.464,2.052920097,,,
05.466,2.238925607,,,
05.468,2.35729275,,,
05.470,2.450295506,,,
05.472,2.577117445,,,
05.474,2.501024281,,,
05.476,2.830761323,,,
05.478,2.754668159,,,
05.480,2.543298261,,,
05.482,2.255835199,,,
05.484,2.112103668,,,
05.486,2.323473567,,,
05.488,2.315018771,,,
05.490,2.365747546,,,
05.492,2.687029792,,,
05.494,2.695484588,,,
05.496,2.771577751,,,
05.498,2.856125711,,,
05.500,2.653210608,,,
05.502,2.281199587,,,
05.504,2.154377648,,,
05.506,2.424931118,,,
05.508,2.391111934,,,
05.510,2.458750302,,,
05.512,2.602481833,,,
05.514,2.602481833,,,
05.516,2.957583262,,,
05.518,2.915309282,,,
05.520,2.71239418,,,
05.522,2.39956673,,,
05.524,2.196651628,,,
05.526,2.374202342,,,
05.528,2.517933873,,,
05.530,2.594027037,,,
05.532,2.678574996,,,
05.534,2.644755812,,,
05.536,2.991402446,,,
05.538,2.856125711,,,
05.540,2.661665404,,,
05.542,2.365747546,,,
05.544,2.298109179,,,
05.546,2.517933873,,,
05.548,2.484114689,,,
05.550,2.594027037,,,
05.552,2.746213363,,,
05.554,2.746213363,,,
05.556,3.160498364,,,
05.558,3.067495609,,,
05.560,2.873035302,,,
05.562,2.44184071,,,
05.564,2.517933873,,,
05.566,2.678574996,,,
05.568,2.678574996,,,
05.570,2.746213363,,,
05.572,2.915309282,,,
05.574,2.966038058,,,
05.576,3.245046324,,,
05.578,3.135133976,,,
05.580,3.008312037,,,
05.582,2.610936628,,,
05.584,2.636301016,,,
05.586,2.889944894,,,
05.588,2.856125711,,,
05.590,2.839216119,,,
05.592,2.98294765,,,
05.594,3.202772344,,,
05.596,3.380323059,,,
05.598,3.21122714,,,
05.600,3.025221629,,,
05.602,2.703939384,,,
05.604,2.780032547,,,
05.606,2.737758568,,,
05.608,2.796942139,,,
05.610,2.889944894,,,
05.612,3.042131221,,,
05.614,3.126679181,,,
05.616,3.278865507,,,
05.618,3.126679181,,,
05.620,2.932218874,,,
05.622,2.492569485,,,
05.624,2.585572241,,,
05.626,2.763122955,,,
05.628,2.62784622,,,
05.630,2.737758568,,,
05.632,2.923764078,,,
05.634,2.991402446,,,
05.636,3.067495609,,,
05.638,2.999857241,,,
05.640,2.796942139,,,
05.642,2.247380403,,,
05.644,2.382657138,,,
05.646,2.501024281,,,
05.648,2.509479077,,,
05.650,2.585572241,,,
05.652,2.6701202,,,
05.654,2.856125711,,,
05.656,3.008312037,,,
05.658,2.788487343,,,
05.660,2.602481833,,,
05.662,2.154377648,,,
05.664,2.433385914,,,
05.666,2.374202342,,,
05.668,2.391111934,,,
05.670,2.543298261,,,
05.672,2.678574996,,,
05.674,2.889944894,,,
05.676,2.873035302,,,
05.678,2.644755812,,,
05.680,2.467205098,,,
05.682,2.137468056,,,
05.684,2.331928363,,,
05.686,2.298109179,,,
05.688,2.391111934,,,
05.690,2.526388669,,,
05.692,2.619391424,,,
05.694,2.839216119,,,
05.696,2.94067367,,,
05.698,2.6701202,,,
05.700,2.484114689,,,
05.702,2.052920097,,,
05.704,2.255835199,,,
05.706,2.433385914,,,
05.708,2.408021526,,,
05.710,2.534843465,,,
05.712,2.568662649,,,
05.714,2.949128466,,,
05.716,2.923764078,,,
05.718,2.653210608,,,
05.720,2.35729275,,,
05.722,2.078284485,,,
05.724,2.433385914,,,
05.726,2.374202342,,,
05.728,2.450295506,,,
05.730,2.644755812,,,
05.732,2.729303772,,,
05.734,2.906854486,,,
05.736,2.89839969,,,
05.738,2.644755812,,,
05.740,2.424931118,,,
05.742,2.205106424,,,
05.744,2.365747546,,,
05.746,2.374202342,,,
05.748,2.408021526,,,
05.750,2.602481833,,,
05.752,2.661665404,,,
05.754,2.89839969,,,
05.756,2.830761323,,,
05.758,2.653210608,,,
05.760,2.348837954,,,
05.762,2.162832444,,,
05.764,2.416476322,,,
05.766,2.433385914,,,
05.768,2.492569485,,,
05.770,2.602481833,,,
05.772,2.678574996,,,
05.774,2.974492854,,,
05.776,2.881490098,,,
05.778,2.6701202,,,
05.780,2.39956673,,,
05.782,2.052920097,,,
05.784,2.39956673,,,
05.786,2.39956673,,,
05.788,2.585572241,,,
05.790,2.610936628,,,
05.792,2.754668159,,,
05.794,3.059040813,,,
05.796,2.856125711,,,
05.798,2.644755812,,,
05.800,2.382657138,,,
05.802,2.255835199,,,
05.804,2.501024281,,,
05.806,2.374202342,,,
05.808,2.484114689,,,
05.810,2.6701202,,,
05.812,2.796942139,,,
05.814,2.991402446,,,
05.816,2.881490098,,,
05.818,2.585572241,,,
05.820,2.365747546,,,
05.822,2.188196832,,,
05.824,2.450295506,,,
05.826,2.450295506,,,
05.828,2.62784622,,,
05.830,2.678574996,,,
05.832,2.695484588,,,
05.834,2.856125711,,,
05.836,2.839216119,,,
05.838,2.678574996,,,
05.840,2.331928363,,,
05.842,2.255835199,,,
05.844,2.467205098,,,
05.846,2.408021526,,,
05.848,2.526388669,,,
05.850,2.6701202,,,
05.852,2.62784622,,,
05.854,2.991402446,,,
05.856,2.780032547,,,
05.858,2.729303772,,,
05.860,2.247380403,,,
05.862,2.315018771,,,
05.864,2.450295506,,,
05.866,2.458750302,,,
05.868,2.543298261,,,
05.870,2.71239418,,,
05.872,2.737758568,,,
05.874,2.98294765,,,
05.876,2.906854486,,,
05.878,2.71239418,,,
05.880,2.230470811,,,
05.882,2.272744791,,,
05.884,2.416476322,,,
05.886,2.44184071,,,
05.888,2.526388669,,,
05.890,2.661665404,,,
05.892,2.796942139,,,
05.894,2.923764078,,,
05.896,2.788487343,,,
05.898,2.6701202,,,
05.900,2.247380403,,,
05.902,2.408021526,,,
05.904,2.517933873,,,
05.906,2.416476322,,,
05.908,2.526388669,,,
05.910,2.678574996,,,
05.912,2.864580507,,,
05.914,3.033676425,,,
05.916,2.856125711,,,
05.918,2.678574996,,,
05.920,2.264289995,,,
05.922,2.424931118,,,
05.924,2.526388669,,,
05.926,2.467205098,,,
05.928,2.492569485,,,
05.930,2.703939384,,,
05.932,2.856125711,,,
05.934,2.966038058,,,
05.936,2.830761323,,,
05.938,2.695484588,,,
05.940,2.238925607,,,
05.942,2.44184071,,,
05.944,2.475659894,,,
05.946,2.458750302,,,
05.948,2.577117445,,,
05.950,2.754668159,,,
05.952,2.889944894,,,
05.954,2.98294765,,,
05.956,2.805396935,,,
05.958,2.687029792,,,
05.960,2.21356122,,,
05.962,2.44184071,,,
05.964,2.560207853,,,
05.966,2.610936628,,,
05.968,2.568662649,,,
05.970,2.729303772,,,
05.972,2.94067367,,,
05.974,3.008312037,,,
05.976,2.813851731,,,
05.978,2.585572241,,,
05.980,2.21356122,,,
05.982,2.492569485,,,
05.984,2.501024281,,,
05.986,2.526388669,,,
05.988,2.746213363,,,
05.990,2.847670915,,,
05.992,3.067495609,,,
05.994,3.016766833,,,
05.996,2.813851731,,,
05.998,2.551753057,,,
06.000,2.255835199,,,
06.002,2.517933873,,,
06.004,2.543298261,,,
06.006,2.644755812,,,
06.008,2.856125711,,,
06.010,2.89839969,,,
06.012,3.143588772,,,
06.014,3.126679181,,,
06.016,2.957583262,,,
06.018,2.62784622,,,
06.020,2.315018771,,,
06.022,2.619391424,,,
06.024,2.644755812,,,
06.026,2.644755812,,,
06.028,2.796942139,,,
06.030,2.822306527,,,
06.032,3.118224385,,,
06.034,3.135133976,,,
06.036,2.839216119,,,
06.038,2.551753057,,,
06.040,2.35729275,,,
06.042,2.509479077,,,
06.044,2.534843465,,,
06.046,2.653210608,,,
06.048,2.71239418,,,
06.050,2.754668159,,,
06.052,2.932218874,,,
06.054,2.974492854,,,
06.056,2.729303772,,,
06.058,2.450295506,,,
06.060,2.179742036,,,
06.062,2.450295506,,,
06.064,2.374202342,,,
06.066,2.408021526,,,
06.068,2.619391424,,,
06.070,2.644755812,,,
06.072,2.906854486,,,
06.074,2.932218874,,,
06.076,2.610936628,,,
06.078,2.196651628,,,
06.080,2.120558464,,,
06.082,2.458750302,,,
06.084,2.424931118,,,
06.086,2.509479077,,,
06.088,2.619391424,,,
06.090,2.653210608,,,
06.092,2.94067367,,,
06.094,2.813851731,,,
06.096,2.644755812,,,
06.098,2.272744791,,,
06.100,2.154377648,,,
06.102,2.408021526,,,
06.104,2.408021526,,,
06.106,2.475659894,,,
06.108,2.619391424,,,
06.110,2.594027037,,,
06.112,2.873035302,,,
06.114,2.729303772,,,
06.116,2.492569485,,,
06.118,2.086739281,,,
06.120,1.968372137,,,
06.122,2.238925607,,,
06.124,2.162832444,,,
06.126,2.340383159,,,
06.128,2.501024281,,,
06.130,2.560207853,,,
06.132,2.906854486,,,
06.134,3.016766833,,,
06.136,3.118224385,,,
06.138,3.033676425,,,
06.140,3.16895316,,,
06.142,3.600147753,,,
06.144,3.853791631,,,
06.146,4.073616325,,,
06.148,4.310350611,,,
06.150,4.318805407,,,
06.152,4.547084898,,,
06.154,4.310350611,,,
06.156,3.946794386,,,
06.158,3.456416222,,,
06.160,3.295775099,,,
06.162,3.261955915,,,
06.164,3.059040813,,,
06.166,2.923764078,,,
06.168,2.737758568,,,
06.170,2.780032547,,,
06.172,3.042131221,,,
06.174,2.830761323,,,
06.176,2.526388669,,,
06.178,2.027555709,,,
06.180,2.052920097,,,
06.182,2.247380403,,,
06.184,2.230470811,,,
06.186,2.306563975,,,
06.188,2.408021526,,,
06.190,2.62784622,,,
06.192,2.754668159,,,
06.194,2.594027037,,,
06.196,2.560207853,,,
06.198,2.12901326,,,
06.200,2.188196832,,,
06.202,2.298109179,,,
06.204,2.416476322,,,
06.206,2.492569485,,,
06.208,2.551753057,,,
06.210,2.771577751,,,
06.212,2.94067367,,,
06.214,2.678574996,,,
06.216,2.6701202,,,
06.218,2.154377648,,,
06.220,2.323473567,,,
06.222,2.44184071,,,
06.224,2.467205098,,,
06.226,2.501024281,,,
06.228,2.6701202,,,
06.230,2.780032547,,,
06.232,2.889944894,,,
06.234,2.678574996,,,
06.236,2.526388669,,,
06.238,2.145922852,,,
06.240,2.35729275,,,
06.242,2.517933873,,,
06.244,2.560207853,,,
06.246,2.594027037,,,
06.248,2.830761323,,,
06.250,2.957583262,,,
06.252,2.788487343,,,
06.254,2.796942139,,,
06.256,2.661665404,,,
06.258,2.247380403,,,
06.260,2.365747546,,,
06.262,2.416476322,,,
06.264,2.534843465,,,
06.266,2.695484588,,,
06.268,2.695484588,,,
06.270,2.966038058,,,
06.272,2.999857241,,,
06.274,2.754668159,,,
06.276,2.560207853,,,
06.278,2.230470811,,,
06.280,2.424931118,,,
06.282,2.509479077,,,
06.284,2.577117445,,,
06.286,2.737758568,,,
06.288,2.788487343,,,
06.290,3.050586017,,,
06.292,3.016766833,,,
06.294,2.839216119,,,
06.296,2.619391424,,,
06.298,2.230470811,,,
06.300,2.560207853,,,
06.302,2.585572241,,,
06.304,2.577117445,,,
06.306,2.746213363,,,
06.308,2.906854486,,,
06.310,3.075950405,,,
06.312,3.059040813,,,
06.314,2.763122955,,,
06.316,2.619391424,,,
06.318,2.35729275,,,
06.320,2.610936628,,,
06.322,2.71239418,,,
06.324,2.687029792,,,
06.326,2.856125711,,,
06.328,2.932218874,,,
06.330,3.202772344,,,
06.332,3.152043568,,,
06.334,2.915309282,,,
06.336,2.636301016,,,
06.338,2.391111934,,,
06.340,2.619391424,,,
06.342,2.602481833,,,
06.344,2.746213363,,,
06.346,2.839216119,,,
06.348,2.94067367,,,
06.350,3.245046324,,,
06.352,3.118224385,,,
06.354,2.966038058,,,
06.356,2.602481833,,,
06.358,2.374202342,,,
06.360,2.703939384,,,
06.362,2.6701202,,,
06.364,2.839216119,,,
06.366,2.796942139,,,
06.368,2.999857241,,,
06.370,3.152043568,,,
06.372,3.219681936,,,
06.374,3.067495609,,,
06.376,2.695484588,,,
06.378,2.475659894,,,
06.380,2.71239418,,,
06.382,2.754668159,,,
06.384,2.89839969,,,
06.386,3.033676425,,,
06.388,3.109769589,,,
06.390,3.295775099,,,
06.392,3.228136732,,,
06.394,3.033676425,,,
06.396,2.71239418,,,
06.398,2.619391424,,,
06.400,2.847670915,,,
06.402,2.780032547,,,
06.404,2.864580507,,,
06.406,2.966038058,,,
06.408,3.016766833,,,
06.410,3.329594283,,,
06.412,3.118224385,,,
06.414,2.94067367,,,
06.416,2.653210608,,,
06.418,2.526388669,,,
06.420,2.695484588,,,
06.422,2.720848976,,,
06.424,2.737758568,,,
06.426,2.864580507,,,
06.428,2.89839969,,,
06.430,3.143588772,,,
06.432,3.008312037,,,
06.434,2.763122955,,,
06.436,2.39956673,,,
06.438,2.44184071,,,
06.440,2.374202342,,,
06.442,2.492569485,,,
06.444,2.568662649,,,
06.446,2.695484588,,,
06.448,2.729303772,,,
06.450,3.084405201,,,
06.452,2.830761323,,,
06.454,2.636301016,,,
06.456,2.315018771,,,
06.458,2.374202342,,,
06.460,2.458750302,,,
06.462,2.408021526,,,
06.464,2.424931118,,,
06.466,2.610936628,,,
06.468,2.763122955,,,
06.470,2.94067367,,,
06.472,2.788487343,,,
06.474,2.585572241,,,
06.476,2.238925607,,,
06.478,2.315018771,,,
06.480,2.416476322,,,
06.482,2.44184071,,,
06.484,2.475659894,,,
06.486,2.678574996,,,
06.488,2.763122955,,,
06.490,2.94067367,,,
06.492,2.703939384,,,
06.494,2.661665404,,,
06.496,2.120558464,,,
06.498,2.374202342,,,
06.500,2.450295506,,,
06.502,2.568662649,,,
06.504,2.585572241,,,
06.506,2.6701202,,,
06.508,2.889944894,,,
06.510,2.999857241,,,
06.512,2.771577751,,,
06.514,2.678574996,,,
06.516,2.298109179,,,
06.518,2.416476322,,,
06.520,2.467205098,,,
06.522,2.492569485,,,
06.524,2.501024281,,,
06.526,2.729303772,,,
06.528,2.873035302,,,
06.530,3.042131221,,,
06.532,2.796942139,,,
06.534,2.568662649,,,
06.536,2.255835199,,,
06.538,2.39956673,,,
06.540,2.424931118,,,
06.542,2.44184071,,,
06.544,2.71239418,,,
06.546,2.746213363,,,
06.548,3.008312037,,,
06.550,3.033676425,,,
06.552,2.754668159,,,
06.554,2.517933873,,,
06.556,2.188196832,,,
06.558,2.391111934,,,
06.560,2.517933873,,,
06.562,2.458750302,,,
06.564,2.560207853,,,
06.566,2.746213363,,,
06.568,3.008312037,,,
06.570,2.957583262,,,
06.572,2.619391424,,,
06.574,2.382657138,,,
06.576,2.162832444,,,
06.578,2.433385914,,,
06.580,2.560207853,,,
06.582,2.492569485,,,
06.584,2.653210608,,,
06.586,2.610936628,,,
06.588,2.89839969,,,
06.590,2.966038058,,,
06.592,2.687029792,,,
06.594,2.382657138,,,
06.596,2.154377648,,,
06.598,2.424931118,,,
06.600,2.433385914,,,
06.602,2.560207853,,,
06.604,2.737758568,,,
06.606,2.720848976,,,
06.608,2.923764078,,,
06.610,2.915309282,,,
06.612,2.737758568,,,
06.614,2.35729275,,,
06.616,2.120558464,,,
06.618,2.416476322,,,
06.620,2.424931118,,,
06.622,2.450295506,,,
06.624,2.644755812,,,
06.626,2.695484588,,,
06.628,2.999857241,,,
06.630,2.847670915,,,
06.632,2.687029792,,,
06.634,2.340383159,,,
06.636,2.120558464,,,
06.638,2.416476322,,,
06.640,2.467205098,,,
06.642,2.492569485,,,
06.644,2.636301016,,,
06.646,2.695484588,,,
06.648,2.915309282,,,
06.650,2.805396935,,,
06.652,2.644755812,,,
06.654,2.348837954,,,
06.656,2.112103668,,,
06.658,2.374202342,,,
06.660,2.340383159,,,
06.662,2.39956673,,,
06.664,2.610936628,,,
06.666,2.644755812,,,
06.668,2.889944894,,,
06.670,2.839216119,,,
06.672,2.560207853,,,
06.674,2.230470811,,,
06.676,2.095194076,,,
06.678,2.365747546,,,
06.680,2.331928363,,,
06.682,2.374202342,,,
06.684,2.619391424,,,
06.686,2.661665404,,,
06.688,2.949128466,,,
06.690,2.763122955,,,
06.692,2.568662649,,,
06.694,2.162832444,,,
06.696,2.21356122,,,
06.698,2.416476322,,,
06.700,2.382657138,,,
06.702,2.424931118,,,
06.704,2.594027037,,,
06.706,2.644755812,,,
06.708,2.864580507,,,
06.710,2.780032547,,,
06.712,2.6701202,,,
06.714,2.264289995,,,
06.716,2.264289995,,,
06.718,2.348837954,,,
06.720,2.340383159,,,
06.722,2.391111934,,,
06.724,2.568662649,,,
06.726,2.560207853,,,
06.728,2.89839969,,,
06.730,2.780032547,,,
06.732,2.602481833,,,
06.734,2.179742036,,,
06.736,2.188196832,,,
06.738,2.348837954,,,
06.740,2.340383159,,,
06.742,2.44184071,,,
06.744,2.551753057,,,
06.746,2.619391424,,,
06.748,2.830761323,,,
06.750,2.695484588,,,
06.752,2.602481833,,,
06.754,2.154377648,,,
06.756,2.230470811,,,
06.758,2.306563975,,,
06.760,2.391111934,,,
06.762,2.467205098,,,
06.764,2.62784622,,,
06.766,2.6701202,,,
06.768,2.881490098,,,
06.770,2.644755812,,,
06.772,2.594027037,,,
06.774,2.12901326,,,
06.776,2.255835199,,,
06.778,2.323473567,,,
06.780,2.475659894,,,
06.782,2.610936628,,,
06.784,2.6701202,,,
06.786,2.796942139,,,
06.788,2.906854486,,,
06.790,2.71239418,,,
06.792,2.644755812,,,
06.794,2.196651628,,,
06.796,2.331928363,,,
06.798,2.433385914,,,
06.800,2.517933873,,,
06.802,2.534843465,,,
06.804,2.788487343,,,
06.806,2.94067367,,,
06.808,2.974492854,,,
06.810,2.830761323,,,
06.812,2.754668159,,,
06.814,2.306563975,,,
06.816,2.39956673,,,
06.818,2.543298261,,,
06.820,2.720848976,,,
06.822,2.695484588,,,
06.824,2.678574996,,,
06.826,2.881490098,,,
06.828,2.999857241,,,
06.830,2.720848976,,,
06.832,2.568662649,,,
06.834,2.145922852,,,
06.836,2.382657138,,,
06.838,2.509479077,,,
06.840,2.484114689,,,
06.842,2.687029792,,,
06.844,2.619391424,,,
06.846,2.864580507,,,
06.848,2.889944894,,,
06.850,2.71239418,,,
06.852,2.35729275,,,
06.854,2.103648872,,,
06.856,2.331928363,,,
06.858,2.306563975,,,
06.860,2.272744791,,,
06.862,2.517933873,,,
06.864,2.602481833,,,
06.866,2.763122955,,,
06.868,2.830761323,,,
06.870,2.534843465,,,
06.872,2.179742036,,,
06.874,1.976826933,,,
06.876,2.264289995,,,
06.878,2.188196832,,,
06.880,2.315018771,,,
06.882,2.551753057,,,
06.884,2.501024281,,,
06.886,2.746213363,,,
06.888,2.661665404,,,
06.890,2.501024281,,,
06.892,2.247380403,,,
06.894,1.951462546,,,
06.896,2.095194076,,,
06.898,2.17128724,,,
06.900,2.272744791,,,
06.902,2.467205098,,,
06.904,2.492569485,,,
06.906,2.746213363,,,
06.908,2.703939384,,,
06.910,2.391111934,,,
06.912,2.120558464,,,
06.914,1.850004994,,,
06.916,2.095194076,,,
06.918,2.103648872,,,
06.920,2.044465301,,,
06.922,2.247380403,,,
06.924,2.281199587,,,
06.926,2.517933873,,,
06.928,2.501024281,,,
06.930,2.323473567,,,
06.932,2.238925607,,,
06.934,2.179742036,,,
06.936,2.636301016,,,
06.938,2.856125711,,,
06.940,3.261955915,,,
06.942,3.701605304,,,
06.944,3.963703978,,,
06.946,4.318805407,,,
06.948,4.386443775,,,
06.950,4.048251937,,,
06.952,3.777698467,,,
06.954,3.549418977,,,
06.956,3.642421733,,,
06.958,3.388777854,,,
06.960,3.346503875,,,
06.962,3.295775099,,,
06.964,3.135133976,,,
06.966,3.101314793,,,
06.968,2.678574996,,,
06.970,2.408021526,,,
06.972,1.993736525,,,
06.974,1.892278974,,,
06.976,2.061374893,,,
06.978,2.061374893,,,
06.980,2.052920097,,,
06.982,2.17128724,,,
06.984,2.162832444,,,
06.986,2.484114689,,,
06.988,2.382657138,,,
06.990,2.196651628,,,
06.992,1.866914586,,,
06.994,1.782366627,,,
06.996,1.976826933,,,
06.998,2.052920097,,,
07.000,2.162832444,,,
07.002,2.306563975,,,
07.004,2.289654383,,,
07.006,2.610936628,,,
07.008,2.450295506,,,
07.010,2.120558464,,,
07.012,1.968372137,,,
07.014,1.959917341,,,
07.016,2.069829689,,,
07.018,2.103648872,,,
07.020,2.095194076,,,
07.022,2.306563975,,,
07.024,2.374202342,,,
07.026,2.661665404,,,
07.028,2.458750302,,,
07.030,2.289654383,,,
07.032,1.90073377,,,
07.034,1.883824178,,,
07.036,1.959917341,,,
07.038,2.010646117,,,
07.040,2.188196832,,,
07.042,2.408021526,,,
07.044,2.44184071,,,
07.046,2.62784622,,,
07.048,2.44184071,,,
07.050,2.264289995,,,
07.052,1.90073377,,,
07.054,1.985281729,,,
07.056,2.086739281,,,
07.058,2.086739281,,,
07.060,2.196651628,,,
07.062,2.365747546,,,
07.064,2.382657138,,,
07.066,2.585572241,,,
07.068,2.39956673,,,
07.070,2.323473567,,,
07.072,1.892278974,,,
07.074,2.019100913,,,
07.076,2.154377648,,,
07.078,2.12901326,,,
07.080,2.21356122,,,
07.082,2.35729275,,,
07.084,2.467205098,,,
07.086,2.6701202,,,
07.088,2.424931118,,,
07.090,2.306563975,,,
07.092,1.850004994,,,
07.094,2.010646117,,,
07.096,2.162832444,,,
07.098,2.17128724,,,
07.100,2.255835199,,,
07.102,2.467205098,,,
07.104,2.585572241,,,
07.106,2.636301016,,,
07.108,2.340383159,,,
07.110,2.331928363,,,
07.112,1.926098158,,,
07.114,2.103648872,,,
07.116,2.196651628,,,
07.118,2.272744791,,,
07.120,2.365747546,,,
07.122,2.416476322,,,
07.124,2.6701202,,,
07.126,2.788487343,,,
07.128,2.450295506,,,
07.130,2.255835199,,,
07.132,1.951462546,,,
07.134,2.179742036,,,
07.136,2.323473567,,,
07.138,2.35729275,,,
07.140,2.450295506,,,
07.142,2.492569485,,,
07.144,2.780032547,,,
07.146,2.763122955,,,
07.148,2.653210608,,,
07.150,2.424931118,,,
07.152,2.205106424,,,
07.154,2.281199587,,,
07.156,2.391111934,,,
07.158,2.408021526,,,
07.160,2.577117445,,,
07.162,2.695484588,,,
07.164,2.856125711,,,
07.166,2.847670915,,,
07.168,2.71239418,,,
07.170,2.475659894,,,
07.172,2.162832444,,,
07.174,2.340383159,,,
07.176,2.619391424,,,
07.178,2.568662649,,,
07.180,2.780032547,,,
07.182,2.771577751,,,
07.184,3.016766833,,,
07.186,3.016766833,,,
07.188,2.830761323,,,
07.190,2.526388669,,,
07.192,2.272744791,,,
07.194,2.534843465,,,
07.196,2.610936628,,,
07.198,2.543298261,,,
07.200,2.678574996,,,
07.202,2.796942139,,,
07.204,3.075950405,,,
07.206,2.94067367,,,
07.208,2.695484588,,,
07.210,2.450295506,,,
07.212,2.289654383,,,
07.214,2.408021526,,,
07.216,2.391111934,,,
07.218,2.543298261,,,
07.220,2.644755812,,,
07.222,2.585572241,,,
07.224,2.873035302,,,
07.226,2.796942139,,,
07.228,2.594027037,,,
07.230,2.205106424,,,
07.232,2.002191321,,,
07.234,2.289654383,,,
07.236,2.264289995,,,
07.238,2.424931118,,,
07.240,2.467205098,,,
07.242,2.365747546,,,
07.244,2.813851731,,,
07.246,2.687029792,,,
07.248,2.517933873,,,
07.250,2.044465301,,,
07.252,1.875369382,,,
07.254,2.205106424,,,
07.256,2.154377648,,,
07.258,2.306563975,,,
07.260,2.424931118,,,
07.262,2.365747546,,,
07.264,2.577117445,,,
07.266,2.577117445,,,
07.268,2.458750302,,,
07.270,2.069829689,,,
07.272,2.010646117,,,
07.274,2.188196832,,,
07.276,2.137468056,,,
07.278,2.281199587,,,
07.280,2.416476322,,,
07.282,2.323473567,,,
07.284,2.62784622,,,
07.286,2.475659894,,,
07.288,2.424931118,,,
07.290,2.036010505,,,
07.292,1.959917341,,,
07.294,2.162832444,,,
07.296,2.12901326,,,
07.298,2.205106424,,,
07.300,2.416476322,,,
07.302,2.365747546,,,
07.304,2.619391424,,,
07.306,2.458750302,,,
07.308,2.39956673,,,
07.310,1.993736525,,,
07.312,2.010646117,,,
07.314,2.12901326,,,
07.316,2.145922852,,,
07.318,2.238925607,,,
07.320,2.450295506,,,
07.322,2.458750302,,,
07.324,2.62784622,,,
07.326,2.517933873,,,
07.328,2.365747546,,,
07.330,1.976826933,,,
07.332,2.019100913,,,
07.334,2.120558464,,,
07.336,2.222016015,,,
07.338,2.230470811,,,
07.340,2.416476322,,,
07.342,2.526388669,,,
07.344,2.687029792,,,
07.346,2.467205098,,,
07.348,2.306563975,,,
07.350,1.934552954,,,
07.352,2.112103668,,,
07.354,2.145922852,,,
07.356,2.188196832,,,
07.358,2.162832444,,,
07.360,2.315018771,,,
07.362,2.501024281,,,
07.364,2.653210608,,,
07.366,2.467205098,,,
07.368,2.365747546,,,
07.370,1.917643362,,,
07.372,2.036010505,,,
07.374,2.154377648,,,
07.376,2.17128724,,,
07.378,2.205106424,,,
07.380,2.298109179,,,
07.382,2.484114689,,,
07.384,2.644755812,,,
07.386,2.408021526,,,
07.388,2.306563975,,,
07.390,1.85845979,,,
07.392,2.069829689,,,
07.394,2.086739281,,,
07.396,2.095194076,,,
07.398,2.298109179,,,
07.400,2.391111934,,,
07.402,2.534843465,,,
07.404,2.644755812,,,
07.406,2.382657138,,,
07.408,2.238925607,,,
07.410,1.892278974,,,
07.412,2.027555709,,,
07.414,2.095194076,,,
07.416,2.095194076,,,
07.418,2.162832444,,,
07.420,2.424931118,,,
07.422,2.585572241,,,
07.424,2.636301016,,,
07.426,2.340383159,,,
07.428,2.179742036,,,
07.430,1.799276219,,,
07.432,2.069829689,,,
07.434,2.103648872,,,
07.436,2.027555709,,,
07.438,2.238925607,,,
07.440,2.348837954,,,
07.442,2.534843465,,,
07.444,2.619391424,,,
07.446,2.416476322,,,
07.448,2.086739281,,,
07.450,1.773911831,,,
07.452,1.968372137,,,
07.454,2.086739281,,,
07.456,2.247380403,,,
07.458,2.289654383,,,
07.460,2.365747546,,,
07.462,2.62784622,,,
07.464,2.517933873,,,
07.466,2.289654383,,,
07.468,1.985281729,,,
07.470,1.799276219,,,
07.472,2.027555709,,,
07.474,2.052920097,,,
07.476,2.17128724,,,
07.478,2.348837954,,,
07.480,2.289654383,,,
07.482,2.534843465,,,
07.484,2.526388669,,,
07.486,2.331928363,,,
07.488,2.036010505,,,
07.490,1.833095402,,,
07.492,2.112103668,,,
07.494,2.137468056,,,
07.496,2.154377648,,,
07.498,2.264289995,,,
07.500,2.365747546,,,
07.502,2.6701202,,,
07.504,2.509479077,,,
07.506,2.35729275,,,
07.508,2.036010505,,,
07.510,1.799276219,,,
07.512,2.061374893,,,
07.514,2.002191321,,,
07.516,2.188196832,,,
07.518,2.340383159,,,
07.520,2.365747546,,,
07.522,2.568662649,,,
07.524,2.610936628,,,
07.526,2.382657138,,,
07.528,2.052920097,,,
07.530,1.714728259,,,
07.532,2.061374893,,,
07.534,2.061374893,,,
07.536,2.205106424,,,
07.538,2.281199587,,,
07.540,2.323473567,,,
07.542,2.62784622,,,
07.544,2.568662649,,,
07.546,2.331928363,,,
07.548,1.951462546,,,
07.550,1.883824178,,,
07.552,2.052920097,,,
07.554,2.036010505,,,
07.556,2.120558464,,,
07.558,2.230470811,,,
07.560,2.272744791,,,
07.562,2.594027037,,,
07.564,2.467205098,,,
07.566,2.264289995,,,
07.568,1.909188566,,,
07.570,1.959917341,,,
07.572,1.959917341,,,
07.574,1.934552954,,,
07.576,2.069829689,,,
07.578,2.238925607,,,
07.580,2.289654383,,,
07.582,2.568662649,,,
07.584,2.458750302,,,
07.586,2.306563975,,,
07.588,1.875369382,,,
07.590,1.934552954,,,
07.592,2.002191321,,,
07.594,2.036010505,,,
07.596,2.103648872,,,
07.598,2.272744791,,,
07.600,2.340383159,,,
07.602,2.526388669,,,
07.604,2.374202342,,,
07.606,2.255835199,,,
07.608,1.850004994,,,
07.610,1.917643362,,,
07.612,2.044465301,,,
07.614,2.103648872,,,
07.616,2.112103668,,,
07.618,2.298109179,,,
07.620,2.424931118,,,
07.622,2.551753057,,,
07.624,2.39956673,,,
07.626,2.340383159,,,
07.628,1.85845979,,,
07.630,1.917643362,,,
07.632,2.145922852,,,
07.634,2.120558464,,,
07.636,2.21356122,,,
07.638,2.35729275,,,
07.640,2.534843465,,,
07.642,2.6701202,,,
07.644,2.365747546,,,
07.646,2.238925607,,,
07.648,1.917643362,,,
07.650,2.069829689,,,
07.652,2.21356122,,,
07.654,2.255835199,,,
07.656,2.306563975,,,
07.658,2.534843465,,,
07.660,2.703939384,,,
07.662,2.71239418,,,
07.664,2.619391424,,,
07.666,2.577117445,,,
07.668,1.993736525,,,
07.670,2.112103668,,,
07.672,2.145922852,,,
07.674,2.247380403,,,
07.676,2.323473567,,,
07.678,2.551753057,,,
07.680,2.6701202,,,
07.682,2.661665404,,,
07.684,2.416476322,,,
07.686,2.35729275,,,
07.688,1.951462546,,,
07.690,2.112103668,,,
07.692,2.086739281,,,
07.694,2.281199587,,,
07.696,2.374202342,,,
07.698,2.306563975,,,
07.700,2.526388669,,,
07.702,2.577117445,,,
07.704,2.340383159,,,
07.706,2.21356122,,,
07.708,1.748547443,,,
07.710,1.934552954,,,
07.712,1.976826933,,,
07.714,2.052920097,,,
07.716,2.289654383,,,
07.718,2.205106424,,,
07.720,2.450295506,,,
07.722,2.433385914,,,
07.724,2.205106424,,,
07.726,2.086739281,,,
07.728,1.757002239,,,
07.730,2.002191321,,,
07.732,2.078284485,,,
07.734,1.976826933,,,
07.736,2.21356122,,,
07.738,2.238925607,,,
07.740,2.416476322,,,
07.742,2.408021526,,,
07.744,2.154377648,,,
07.746,1.934552954,,,
07.748,1.680909076,,,
07.750,1.951462546,,,
07.752,1.94300775,,,
07.754,1.985281729,,,
07.756,2.137468056,,,
07.758,2.17128724,,,
07.760,2.264289995,,,
07.762,2.238925607,,,
07.764,2.044465301,,,
07.766,1.757002239,,,
07.768,1.444174789,,,
07.770,1.647089892,,,
07.772,1.680909076,,,
07.774,1.748547443,,,
07.776,1.976826933,,,
07.778,2.078284485,,,
07.780,2.568662649,,,
07.782,2.619391424,,,
07.784,2.678574996,,,
07.786,2.644755812,,,
07.788,2.737758568,,,
07.790,3.194317548,,,
07.792,3.490235406,,,
07.794,3.726969692,,,
07.796,3.972158774,,,
07.798,4.014432754,,,
07.800,4.327260203,,,
07.802,4.141254693,,,
07.804,3.803062855,,,
07.806,3.329594283,,,
07.808,2.847670915,,,
07.810,2.923764078,,,
07.812,2.703939384,,,
07.814,2.560207853,,,
07.816,2.306563975,,,
07.818,2.281199587,,,
07.820,2.509479077,,,
07.822,2.382657138,,,
07.824,2.196651628,,,
07.826,1.807731015,,,
07.828,1.596361116,,,
07.830,1.841550198,,,
07.832,1.782366627,,,
07.834,1.748547443,,,
07.836,1.94300775,,,
07.838,1.976826933,,,
07.840,2.289654383,,,
07.842,2.222016015,,,
07.844,2.095194076,,,
07.846,1.697818668,,,
07.848,1.596361116,,,
07.850,1.757002239,,,
07.852,1.833095402,,,
07.854,1.94300775,,,
07.856,2.103648872,,,
07.858,2.188196832,,,
07.860,2.315018771,,,
07.862,2.179742036,,,
07.864,2.086739281,,,
07.866,1.765457035,,,
07.868,1.714728259,,,
07.870,1.841550198,,,
07.872,1.917643362,,,
07.874,2.019100913,,,
07.876,2.036010505,,,
07.878,2.103648872,,,
07.880,2.416476322,,,
07.882,2.247380403,,,
07.884,2.069829689,,,
07.886,1.723183055,,,
07.888,1.655544688,,,
07.890,1.850004994,,,
07.892,1.951462546,,,
07.894,1.993736525,,,
07.896,2.120558464,,,
07.898,2.222016015,,,
07.900,2.433385914,,,
07.902,2.17128724,,,
07.904,2.095194076,,,
07.906,1.680909076,,,
07.908,1.765457035,,,
07.910,1.951462546,,,
07.912,1.90073377,,,
07.914,1.959917341,,,
07.916,2.120558464,,,
07.918,2.222016015,,,
07.920,2.391111934,,,
07.922,2.230470811,,,
07.924,2.120558464,,,
07.926,1.638635096,,,
07.928,1.790821423,,,
07.930,1.841550198,,,
07.932,1.917643362,,,
07.934,1.968372137,,,
07.936,2.162832444,,,
07.938,2.230470811,,,
07.940,2.391111934,,,
07.942,2.21356122,,,
07.944,2.145922852,,,
07.946,1.740092647,,,
07.948,1.731637851,,,
07.950,1.883824178,,,
07.952,1.985281729,,,
07.954,2.112103668,,,
07.956,2.179742036,,,
07.958,2.35729275,,,
07.960,2.416476322,,,
07.962,2.238925607,,,
07.964,2.12901326,,,
07.966,1.655544688,,,
07.968,1.773911831,,,
07.970,1.976826933,,,
07.972,2.036010505,,,
07.974,2.162832444,,,
07.976,2.196651628,,,
07.978,2.458750302,,,
07.980,2.475659894,,,
07.982,2.289654383,,,
07.984,2.188196832,,,
07.986,1.816185811,,,
07.988,1.934552954,,,
07.990,2.061374893,,,
07.992,2.154377648,,,
07.994,2.230470811,,,
07.996,2.382657138,,,
07.998,2.577117445,,,
08.000,2.484114689,,,
08.002,2.408021526,,,
08.004,2.281199587,,,
08.006,1.917643362,,,
08.008,2.069829689,,,
08.010,2.21356122,,,
08.012,2.17128724,,,
08.014,2.391111934,,,
08.016,2.391111934,,,
08.018,2.644755812,,,
08.020,2.729303772,,,
08.022,2.585572241,,,
08.024,2.323473567,,,
08.026,2.019100913,,,
08.028,2.247380403,,,
08.030,2.340383159,,,
08.032,2.323473567,,,
08.034,2.534843465,,,
08.036,2.551753057,,,
08.038,2.754668159,,,
08.040,2.746213363,,,
08.042,2.644755812,,,
08.044,2.306563975,,,
08.046,2.027555709,,,
08.048,2.315018771,,,
08.050,2.331928363,,,
08.052,2.382657138,,,
08.054,2.534843465,,,
08.056,2.577117445,,,
08.058,2.796942139,,,
08.060,2.746213363,,,
08.062,2.551753057,,,
08.064,2.255835199,,,
08.066,1.993736525,,,
08.068,2.247380403,,,
08.070,2.154377648,,,
08.072,2.205106424,,,
08.074,2.340383159,,,
08.076,2.39956673,,,
08.078,2.687029792,,,
08.080,2.568662649,,,
08.082,2.348837954,,,
08.084,1.94300775,,,
08.086,1.757002239,,,
08.088,1.993736525,,,
08.090,1.985281729,,,
08.092,2.010646117,,,
08.094,2.188196832,,,
08.096,2.281199587,,,
08.098,2.509479077,,,
08.100,2.340383159,,,
08.102,2.162832444,,,
08.104,1.824640607,,,
08.106,1.723183055,,,
08.108,1.917643362,,,
08.110,1.875369382,,,
08.112,1.993736525,,,
08.114,2.154377648,,,
08.116,2.238925607,,,
08.118,2.433385914,,,
08.120,2.374202342,,,
08.122,2.205106424,,,
08.124,1.824640607,,,
08.126,1.579451524,,,
08.128,1.875369382,,,
08.130,1.909188566,,,
08.132,1.934552954,,,
08.134,2.095194076,,,
08.136,2.179742036,,,
08.138,2.408021526,,,
08.140,2.323473567,,,
08.142,2.103648872,,,
08.144,1.807731015,,,
08.146,1.697818668,,,
08.148,1.850004994,,,
08.150,1.934552954,,,
08.152,2.061374893,,,
08.154,2.137468056,,,
08.156,2.162832444,,,
08.158,2.391111934,,,
08.160,2.323473567,,,
08.162,2.137468056,,,
08.164,1.680909076,,,
08.166,1.748547443,,,
08.168,1.841550198,,,
08.170,1.799276219,,,
08.172,2.078284485,,,
08.174,2.120558464,,,
08.176,2.230470811,,,
08.178,2.39956673,,,
08.180,2.247380403,,,
08.182,2.095194076,,,
08.184,1.765457035,,,
08.186,1.748547443,,,
08.188,1.841550198,,,
08.190,1.850004994,,,
08.192,1.968372137,,,
08.194,2.137468056,,,
08.196,2.21356122,,,
08.198,2.323473567,,,
08.200,2.21356122,,,
08.202,2.052920097,,,
08.204,1.638635096,,,
08.206,1.697818668,,,
08.208,1.773911831,,,
08.210,1.866914586,,,
08.212,2.019100913,,,
08.214,2.145922852,,,
08.216,2.230470811,,,
08.218,2.416476322,,,
08.220,2.21356122,,,
08.222,2.095194076,,,
08.224,1.723183055,,,
08.226,1.816185811,,,
08.228,1.94300775,,,
08.230,1.959917341,,,
08.232,1.976826933,,,
08.234,2.145922852,,,
08.236,2.340383159,,,
08.238,2.408021526,,,
08.240,2.247380403,,,
08.242,2.112103668,,,
08.244,1.731637851,,,
08.246,1.892278974,,,
08.248,2.010646117,,,
08.250,1.993736525,,,
08.252,2.002191321,,,
08.254,2.17128724,,,
08.256,2.348837954,,,
08.258,2.424931118,,,
08.260,2.230470811,,,
08.262,2.17128724,,,
08.264,1.714728259,,,
08.266,1.85845979,,,
08.268,2.036010505,,,
08.270,1.976826933,,,
08.272,2.137468056,,,
08.274,2.340383159,,,
08.276,2.467205098,,,
08.278,2.501024281,,,
08.280,2.264289995,,,
08.282,2.12901326,,,
08.284,1.731637851,,,
08.286,1.94300775,,,
08.288,1.926098158,,,
08.290,2.010646117,,,
08.292,2.145922852,,,
08.294,2.247380403,,,
08.296,2.492569485,,,
08.298,2.44184071,,,
08.300,2.306563975,,,
08.302,2.027555709,,,
08.304,1.757002239,,,
08.306,2.002191321,,,
08.308,2.044465301,,,
08.310,2.069829689,,,
08.312,2.222016015,,,
08.314,2.340383159,,,
08.316,2.416476322,,,
08.318,2.39956673,,,
08.320,2.205106424,,,
08.322,1.993736525,,,
08.324,1.714728259,,,
08.326,1.968372137,,,
08.328,2.002191321,,,
08.330,2.095194076,,,
08.332,2.298109179,,,
08.334,2.281199587,,,
08.336,2.492569485,,,
08.338,2.484114689,,,
08.340,2.230470811,,,
08.342,1.968372137,,,
08.344,1.740092647,,,
08.346,1.976826933,,,
08.348,2.044465301,,,
08.350,2.078284485,,,
08.352,2.272744791,,,
08.354,2.281199587,,,
08.356,2.484114689,,,
08.358,2.408021526,,,
08.360,2.272744791,,,
08.362,1.959917341,,,
08.364,1.723183055,,,
08.366,1.968372137,,,
08.368,2.010646117,,,
08.370,2.095194076,,,
08.372,2.188196832,,,
08.374,2.298109179,,,
08.376,2.543298261,,,
08.378,2.492569485,,,
08.380,2.272744791,,,
08.382,2.044465301,,,
08.384,1.782366627,,,
08.386,2.069829689,,,
08.388,1.909188566,,,
08.390,2.010646117,,,
08.392,2.272744791,,,
08.394,2.340383159,,,
08.396,2.560207853,,,
08.398,2.424931118,,,
08.400,2.222016015,,,
08.402,1.850004994,,,
08.404,1.67245428,,,
08.406,1.968372137,,,
08.408,1.90073377,,,
08.410,2.044465301,,,
08.412,2.188196832,,,
08.414,2.315018771,,,
08.416,2.382657138,,,
08.418,2.331928363,,,
08.420,2.162832444,,,
08.422,1.85845979,,,
08.424,1.714728259,,,
08.426,1.959917341,,,
08.428,1.917643362,,,
08.430,2.078284485,,,
08.432,2.188196832,,,
08.434,2.230470811,,,
08.436,2.458750302,,,
08.438,2.331928363,,,
08.440,2.21356122,,,
08.442,1.841550198,,,
08.444,1.85845979,,,
08.446,1.985281729,,,
08.448,2.086739281,,,
08.450,2.103648872,,,
08.452,2.196651628,,,
08.454,2.323473567,,,
08.456,2.509479077,,,
08.458,2.374202342,,,
08.460,2.331928363,,,
08.462,1.875369382,,,
08.464,1.90073377,,,
08.466,2.061374893,,,
08.468,2.137468056,,,
08.470,2.188196832,,,
08.472,2.331928363,,,
08.474,2.433385914,,,
08.476,2.771577751,,,
08.478,2.526388669,,,
08.480,2.35729275,,,
08.482,1.976826933,,,
08.484,2.078284485,,,
08.486,2.179742036,,,
08.488,2.247380403,,,
08.490,2.315018771,,,
08.492,2.424931118,,,
08.494,2.551753057,,,
08.496,2.754668159,,,
08.498,2.517933873,,,
08.500,2.35729275,,,