Time (s),Signal (V),Peak Time (s) ,Sample #,Type
00.000,2.635078416,00.556,278,N
00.002,2.704420107,00.798,399,t
00.004,2.583072147,01.512,756,N
00.006,2.375047073,01.762,881,t
00.008,2.132351154,02.440,1220,N
00.010,1.958996926,02.688,1344,t
00.012,1.872319812,03.380,1690,N
00.014,1.976332349,03.616,1808,t
00.016,2.167022,04.244,2122,N
00.018,2.461724188,04.498,2249,t
00.020,2.617742993,05.112,2556,N
00.022,2.687084684,05.370,2685,t
00.024,2.617742993,06.038,3019,N
00.026,2.427053342,06.300,3150,t
00.028,2.115015731,06.950,3475,N
00.030,1.976332349,07.196,3598,t
00.032,1.906990657,07.836,3918,N
00.034,2.011003194,08.088,4044,t
00.036,2.271034536,08.718,4359,N
00.038,2.548401302,08.968,4484,t
00.040,2.704420107,,,
00.042,2.739090953,,,
00.044,2.617742993,,,
00.046,2.444388765,,,
00.048,2.167022,,,
00.050,1.976332349,,,
00.052,1.976332349,,,
00.054,2.04567404,,,
00.056,2.253699114,,,
00.058,2.565736724,,,
00.060,2.72175553,,,
00.062,2.773761798,,,
00.064,2.669749261,,,
00.066,2.461724188,,,
00.068,2.167022,,,
00.070,1.993667771,,,
00.072,1.993667771,,,
00.074,2.080344885,,,
00.076,2.271034536,,,
00.078,2.583072147,,,
00.080,2.739090953,,,
00.082,2.773761798,,,
00.084,2.635078416,,,
00.086,2.444388765,,,
00.088,2.149686577,,,
00.090,1.993667771,,,
00.092,1.993667771,,,
00.094,2.132351154,,,
00.096,2.288369959,,,
00.098,2.60040757,,,
00.100,2.756426375,,,
00.102,2.773761798,,,
00.104,2.617742993,,,
00.106,2.427053342,,,
00.108,2.132351154,,,
00.110,1.976332349,,,
00.112,1.958996926,,,
00.114,2.097680308,,,
00.116,2.253699114,,,
00.118,2.617742993,,,
00.120,2.72175553,,,
00.122,2.756426375,,,
00.124,2.60040757,,,
00.126,2.392382496,,,
00.128,2.080344885,,,
00.130,1.958996926,,,
00.132,1.941661503,,,
00.134,2.097680308,,,
00.136,2.305705382,,,
00.138,2.60040757,,,
00.140,2.704420107,,,
00.142,2.704420107,,,
00.144,2.548401302,,,
00.146,2.392382496,,,
00.148,2.028338617,,,
00.150,1.993667771,,,
00.152,1.92432608,,,
00.154,2.115015731,,,
00.156,2.323040805,,,
00.158,2.60040757,,,
00.160,2.72175553,,,
00.162,2.739090953,,,
00.164,2.565736724,,,
00.166,2.357711651,,,
00.168,2.080344885,,,
00.170,1.958996926,,,
00.172,1.958996926,,,
00.174,2.149686577,,,
00.176,2.357711651,,,
00.178,2.635078416,,,
00.180,2.756426375,,,
00.182,2.704420107,,,
00.184,2.565736724,,,
00.186,2.375047073,,,
00.188,2.080344885,,,
00.190,1.976332349,,,
00.192,1.993667771,,,
00.194,2.167022,,,
00.196,2.375047073,,,
00.198,2.652413839,,,
00.200,2.72175553,,,
00.202,2.704420107,,,
00.204,2.531065879,,,
00.206,2.305705382,,,
00.208,2.028338617,,,
00.210,1.941661503,,,
00.212,1.958996926,,,
00.214,2.149686577,,,
00.216,2.392382496,,,
00.218,2.617742993,,,
00.220,2.739090953,,,
00.222,2.687084684,,,
00.224,2.496395033,,,
00.226,2.271034536,,,
00.228,2.011003194,,,
00.230,1.906990657,,,
00.232,1.941661503,,,
00.234,2.167022,,,
00.236,2.409717919,,,
00.238,2.635078416,,,
00.240,2.72175553,,,
00.242,2.669749261,,,
00.244,2.444388765,,,
00.246,2.236363691,,,
00.248,1.993667771,,,
00.250,1.889655234,,,
00.252,1.993667771,,,
00.254,2.167022,,,
00.256,2.444388765,,,
00.258,2.652413839,,,
00.260,2.72175553,,,
00.262,2.669749261,,,
00.264,2.47905961,,,
00.266,2.236363691,,,
00.268,2.011003194,,,
00.270,1.906990657,,,
00.272,1.976332349,,,
00.274,2.184357422,,,
00.276,2.461724188,,,
00.278,2.652413839,,,
00.280,2.687084684,,,
00.282,2.669749261,,,
00.284,2.461724188,,,
00.286,2.201692845,,,
00.288,1.993667771,,,
00.290,1.906990657,,,
00.292,2.011003194,,,
00.294,2.184357422,,,
00.296,2.461724188,,,
00.298,2.652413839,,,
00.300,2.704420107,,,
00.302,2.635078416,,,
00.304,2.409717919,,,
00.306,2.149686577,,,
00.308,1.976332349,,,
00.310,1.889655234,,,
00.312,2.011003194,,,
00.314,2.219028268,,,
00.316,2.496395033,,,
00.318,2.652413839,,,
00.320,2.72175553,,,
00.322,2.635078416,,,
00.324,2.444388765,,,
00.326,2.149686577,,,
00.328,1.958996926,,,
00.330,1.941661503,,,
00.332,2.028338617,,,
00.334,2.236363691,,,
00.336,2.531065879,,,
00.338,2.669749261,,,
00.340,2.72175553,,,
00.342,2.635078416,,,
00.344,2.427053342,,,
00.346,2.149686577,,,
00.348,1.958996926,,,
00.350,1.92432608,,,
00.352,2.04567404,,,
00.354,2.219028268,,,
00.356,2.531065879,,,
00.358,2.652413839,,,
00.360,2.704420107,,,
00.362,2.635078416,,,
00.364,2.375047073,,,
00.366,2.097680308,,,
00.368,1.941661503,,,
00.370,1.906990657,,,
00.372,2.063009463,,,
00.374,2.219028268,,,
00.376,2.565736724,,,
00.378,2.704420107,,,
00.380,2.739090953,,,
00.382,2.60040757,,,
00.384,2.427053342,,,
00.386,2.132351154,,,
00.388,1.976332349,,,
00.390,1.976332349,,,
00.392,2.097680308,,,
00.394,2.253699114,,,
00.396,2.60040757,,,
00.398,2.739090953,,,
00.400,2.791097221,,,
00.402,2.635078416,,,
00.404,2.444388765,,,
00.406,2.097680308,,,
00.408,1.976332349,,,
00.410,1.993667771,,,
00.412,2.132351154,,,
00.414,2.323040805,,,
00.416,2.652413839,,,
00.418,2.791097221,,,
00.420,2.791097221,,,
00.422,2.687084684,,,
00.424,2.531065879,,,
00.426,2.201692845,,,
00.428,2.080344885,,,
00.430,2.063009463,,,
00.432,2.271034536,,,
00.434,2.427053342,,,
00.436,2.739090953,,,
00.438,2.860438912,,,
00.440,2.877774335,,,
00.442,2.72175553,,,
00.444,2.531065879,,,
00.446,2.201692845,,,
00.448,2.097680308,,,
00.450,2.080344885,,,
00.452,2.288369959,,,
00.454,2.461724188,,,
00.456,2.739090953,,,
00.458,2.808432644,,,
00.460,2.84310349,,,
00.462,2.635078416,,,
00.464,2.427053342,,,
00.466,2.115015731,,,
00.468,1.993667771,,,
00.470,1.993667771,,,
00.472,2.149686577,,,
00.474,2.357711651,,,
00.476,2.617742993,,,
00.478,2.704420107,,,
00.480,2.72175553,,,
00.482,2.496395033,,,
00.484,2.305705382,,,
00.486,2.04567404,,,
00.488,1.976332349,,,
00.490,1.976332349,,,
00.492,2.149686577,,,
00.494,2.340376228,,,
00.496,2.617742993,,,
00.498,2.72175553,,,
00.500,2.687084684,,,
00.502,2.444388765,,,
00.504,2.236363691,,,
00.506,1.976332349,,,
00.508,1.889655234,,,
00.510,1.906990657,,,
00.512,2.132351154,,,
00.514,2.375047073,,,
00.516,2.617742993,,,
00.518,2.704420107,,,
00.520,2.687084684,,,
00.522,2.47905961,,,
00.524,2.236363691,,,
00.526,1.958996926,,,
00.528,1.820313543,,,
00.530,1.854984389,,,
00.532,2.028338617,,,
00.534,2.271034536,,,
00.536,2.496395033,,,
00.538,2.531065879,,,
00.540,2.565736724,,,
00.542,2.548401302,,,
00.544,2.461724188,,,
00.546,2.444388765,,,
00.548,2.687084684,,,
00.550,3.033793141,,,
00.552,3.553855825,,,
00.554,4.07391851,,,
00.556,4.50730408,,,
00.558,4.697993732,,,
00.560,4.593981195,,,
00.562,4.160595624,,,
00.564,3.501849557,,,
00.566,3.033793141,,,
00.568,2.895109758,,,
00.570,2.704420107,,,
00.572,2.548401302,,,
00.574,2.531065879,,,
00.576,2.236363691,,,
00.578,2.132351154,,,
00.580,2.063009463,,,
00.582,1.906990657,,,
00.584,1.698965583,,,
00.586,1.525611355,,,
00.588,1.490940509,,,
00.590,1.629623892,,,
00.592,1.906990657,,,
00.594,2.201692845,,,
00.596,2.461724188,,,
00.598,2.583072147,,,
00.600,2.548401302,,,
00.602,2.427053342,,,
00.604,2.149686577,,,
00.606,1.976332349,,,
00.608,1.958996926,,,
00.610,2.080344885,,,
00.612,2.253699114,,,
00.614,2.60040757,,,
00.616,2.791097221,,,
00.618,2.825768067,,,
00.620,2.72175553,,,
00.622,2.565736724,,,
00.624,2.236363691,,,
00.626,2.063009463,,,
00.628,2.028338617,,,
00.630,2.115015731,,,
00.632,2.340376228,,,
00.634,2.635078416,,,
00.636,2.773761798,,,
00.638,2.825768067,,,
00.640,2.704420107,,,
00.642,2.531065879,,,
00.644,2.253699114,,,
00.646,2.097680308,,,
00.648,2.04567404,,,
00.650,2.167022,,,
00.652,2.375047073,,,
00.654,2.704420107,,,
00.656,2.860438912,,,
00.658,2.877774335,,,
00.660,2.773761798,,,
00.662,2.583072147,,,
00.664,2.288369959,,,
00.666,2.149686577,,,
00.668,2.115015731,,,
00.670,2.236363691,,,
00.672,2.444388765,,,
00.674,2.756426375,,,
00.676,2.895109758,,,
00.678,2.929780604,,,
00.680,2.84310349,,,
00.682,2.617742993,,,
00.684,2.288369959,,,
00.686,2.184357422,,,
00.688,2.184357422,,,
00.690,2.305705382,,,
00.692,2.496395033,,,
00.694,2.84310349,,,
00.696,2.947116027,,,
00.698,2.947116027,,,
00.700,2.825768067,,,
00.702,2.669749261,,,
00.704,2.357711651,,,
00.706,2.201692845,,,
00.708,2.236363691,,,
00.710,2.409717919,,,
00.712,2.583072147,,,
00.714,2.947116027,,,
00.716,3.051128563,,,
00.718,3.103134832,,,
00.720,2.947116027,,,
00.722,2.739090953,,,
00.724,2.427053342,,,
00.726,2.340376228,,,
00.728,2.340376228,,,
00.730,2.47905961,,,
00.732,2.669749261,,,
00.734,3.016457718,,,
00.736,3.137805678,,,
00.738,3.137805678,,,
00.740,2.999122295,,,
00.742,2.84310349,,,
00.744,2.531065879,,,
00.746,2.427053342,,,
00.748,2.47905961,,,
00.750,2.635078416,,,
00.752,2.877774335,,,
00.754,3.172476523,,,
00.756,3.293824483,,,
00.758,3.293824483,,,
00.760,3.1551411,,,
00.762,2.964451449,,,
00.764,2.687084684,,,
00.766,2.617742993,,,
00.768,2.652413839,,,
00.770,2.84310349,,,
00.772,3.103134832,,,
00.774,3.39783702,,,
00.776,3.501849557,,,
00.778,3.501849557,,,
00.780,3.345830751,,,
00.782,3.172476523,,,
00.784,2.912445181,,,
00.786,2.808432644,,,
00.788,2.825768067,,,
00.790,3.051128563,,,
00.792,3.293824483,,,
00.794,3.51918498,,,
00.796,3.640532939,,,
00.798,3.605862094,,,
00.800,3.415172443,,,
00.802,3.224482792,,,
00.804,2.964451449,,,
00.806,2.877774335,,,
00.808,2.912445181,,,
00.810,3.085799409,,,
00.812,3.328495329,,,
00.814,3.571191248,,,
00.816,3.605862094,,,
00.818,3.571191248,,,
00.820,3.345830751,,,
00.822,3.085799409,,,
00.824,2.825768067,,,
00.826,2.704420107,,,
00.828,2.72175553,,,
00.830,2.860438912,,,
00.832,3.068463986,,,
00.834,3.27648906,,,
00.836,3.293824483,,,
00.838,3.207147369,,,
00.840,2.964451449,,,
00.842,2.652413839,,,
00.844,2.392382496,,,
00.846,2.305705382,,,
00.848,2.323040805,,,
00.850,2.47905961,,,
00.852,2.687084684,,,
00.854,2.929780604,,,
00.856,2.964451449,,,
00.858,2.912445181,,,
00.860,2.669749261,,,
00.862,2.409717919,,,
00.864,2.184357422,,,
00.866,2.115015731,,,
00.868,2.149686577,,,
00.870,2.323040805,,,
00.872,2.583072147,,,
00.874,2.756426375,,,
00.876,2.84310349,,,
00.878,2.739090953,,,
00.880,2.565736724,,,
00.882,2.253699114,,,
00.884,2.04567404,,,
00.886,1.976332349,,,
00.888,2.04567404,,,
00.890,2.253699114,,,
00.892,2.548401302,,,
00.894,2.704420107,,,
00.896,2.756426375,,,
00.898,2.669749261,,,
00.900,2.461724188,,,
00.902,2.149686577,,,
00.904,1.976332349,,,
00.906,1.92432608,,,
00.908,1.976332349,,,
00.910,2.201692845,,,
00.912,2.531065879,,,
00.914,2.635078416,,,
00.916,2.669749261,,,
00.918,2.583072147,,,
00.920,2.392382496,,,
00.922,2.097680308,,,
00.924,1.92432608,,,
00.926,1.872319812,,,
00.928,1.993667771,,,
00.930,2.184357422,,,
00.932,2.47905961,,,
00.934,2.635078416,,,
00.936,2.687084684,,,
00.938,2.565736724,,,
00.940,2.392382496,,,
00.942,2.149686577,,,
00.944,1.976332349,,,
00.946,1.92432608,,,
00.948,2.028338617,,,
00.950,2.236363691,,,
00.952,2.565736724,,,
00.954,2.704420107,,,
00.956,2.739090953,,,
00.958,2.617742993,,,
00.960,2.427053342,,,
00.962,2.132351154,,,
00.964,2.028338617,,,
00.966,1.958996926,,,
00.968,2.097680308,,,
00.970,2.288369959,,,
00.972,2.635078416,,,
00.974,2.773761798,,,
00.976,2.791097221,,,
00.978,2.687084684,,,
00.980,2.513730456,,,
00.982,2.184357422,,,
00.984,2.063009463,,,
00.986,2.063009463,,,
00.988,2.201692845,,,
00.990,2.357711651,,,
00.992,2.669749261,,,
00.994,2.791097221,,,
00.996,2.860438912,,,
00.998,2.687084684,,,
01.000,2.513730456,,,
01.002,2.184357422,,,
01.004,2.04567404,,,
01.006,2.080344885,,,
01.008,2.184357422,,,
01.010,2.375047073,,,
01.012,2.687084684,,,
01.014,2.808432644,,,
01.016,2.791097221,,,
01.018,2.652413839,,,
01.020,2.47905961,,,
01.022,2.167022,,,
01.024,2.028338617,,,
01.026,2.011003194,,,
01.028,2.167022,,,
01.030,2.375047073,,,
01.032,2.652413839,,,
01.034,2.791097221,,,
01.036,2.791097221,,,
01.038,2.635078416,,,
01.040,2.409717919,,,
01.042,2.132351154,,,
01.044,2.011003194,,,
01.046,2.04567404,,,
01.048,2.184357422,,,
01.050,2.357711651,,,
01.052,2.687084684,,,
01.054,2.808432644,,,
01.056,2.739090953,,,
01.058,2.617742993,,,
01.060,2.392382496,,,
01.062,2.080344885,,,
01.064,1.958996926,,,
01.066,2.028338617,,,
01.068,2.219028268,,,
01.070,2.409717919,,,
01.072,2.687084684,,,
01.074,2.773761798,,,
01.076,2.756426375,,,
01.078,2.565736724,,,
01.080,2.357711651,,,
01.082,2.097680308,,,
01.084,2.011003194,,,
01.086,2.028338617,,,
01.088,2.236363691,,,
01.090,2.427053342,,,
01.092,2.687084684,,,
01.094,2.825768067,,,
01.096,2.756426375,,,
01.098,2.531065879,,,
01.100,2.357711651,,,
01.102,2.04567404,,,
01.104,1.993667771,,,
01.106,2.028338617,,,
01.108,2.201692845,,,
01.110,2.427053342,,,
01.112,2.669749261,,,
01.114,2.756426375,,,
01.116,2.704420107,,,
01.118,2.531065879,,,
01.120,2.271034536,,,
01.122,2.04567404,,,
01.124,1.993667771,,,
01.126,2.04567404,,,
01.128,2.219028268,,,
01.130,2.461724188,,,
01.132,2.669749261,,,
01.134,2.773761798,,,
01.136,2.72175553,,,
01.138,2.496395033,,,
01.140,2.236363691,,,
01.142,2.04567404,,,
01.144,1.958996926,,,
01.146,2.011003194,,,
01.148,2.184357422,,,
01.150,2.496395033,,,
01.152,2.669749261,,,
01.154,2.756426375,,,
01.156,2.687084684,,,
01.158,2.496395033,,,
01.160,2.201692845,,,
01.162,2.04567404,,,
01.164,1.976332349,,,
01.166,2.04567404,,,
01.168,2.253699114,,,
01.170,2.513730456,,,
01.172,2.704420107,,,
01.174,2.773761798,,,
01.176,2.687084684,,,
01.178,2.47905961,,,
01.180,2.184357422,,,
01.182,1.993667771,,,
01.184,1.941661503,,,
01.186,2.04567404,,,
01.188,2.236363691,,,
01.190,2.496395033,,,
01.192,2.704420107,,,
01.194,2.791097221,,,
01.196,2.635078416,,,
01.198,2.496395033,,,
01.200,2.184357422,,,
01.202,2.028338617,,,
01.204,1.976332349,,,
01.206,2.063009463,,,
01.208,2.253699114,,,
01.210,2.583072147,,,
01.212,2.72175553,,,
01.214,2.756426375,,,
01.216,2.669749261,,,
01.218,2.496395033,,,
01.220,2.201692845,,,
01.222,2.04567404,,,
01.224,1.993667771,,,
01.226,2.080344885,,,
01.228,2.271034536,,,
01.230,2.583072147,,,
01.232,2.72175553,,,
01.234,2.773761798,,,
01.236,2.652413839,,,
01.238,2.461724188,,,
01.240,2.184357422,,,
01.242,2.04567404,,,
01.244,1.993667771,,,
01.246,2.097680308,,,
01.248,2.288369959,,,
01.250,2.565736724,,,
01.252,2.72175553,,,
01.254,2.756426375,,,
01.256,2.652413839,,,
01.258,2.461724188,,,
01.260,2.184357422,,,
01.262,2.028338617,,,
01.264,1.958996926,,,
01.266,2.132351154,,,
01.268,2.288369959,,,
01.270,2.583072147,,,
01.272,2.72175553,,,
01.274,2.773761798,,,
01.276,2.617742993,,,
01.278,2.427053342,,,
01.280,2.167022,,,
01.282,2.011003194,,,
01.284,1.993667771,,,
01.286,2.132351154,,,
01.288,2.323040805,,,
01.290,2.635078416,,,
01.292,2.773761798,,,
01.294,2.739090953,,,
01.296,2.635078416,,,
01.298,2.444388765,,,
01.300,2.115015731,,,
01.302,1.993667771,,,
01.304,1.976332349,,,
01.306,2.097680308,,,
01.308,2.323040805,,,
01.310,2.652413839,,,
01.312,2.773761798,,,
01.314,2.791097221,,,
01.316,2.60040757,,,
01.318,2.392382496,,,
01.320,2.115015731,,,
01.322,1.993667771,,,
01.324,1.993667771,,,
01.326,2.184357422,,,
01.328,2.375047073,,,
01.330,2.652413839,,,
01.332,2.773761798,,,
01.334,2.773761798,,,
01.336,2.617742993,,,
01.338,2.409717919,,,
01.340,2.149686577,,,
01.342,2.028338617,,,
01.344,2.028338617,,,
01.346,2.184357422,,,
01.348,2.427053342,,,
01.350,2.739090953,,,
01.352,2.808432644,,,
01.354,2.808432644,,,
01.356,2.635078416,,,
01.358,2.427053342,,,
01.360,2.184357422,,,
01.362,2.115015731,,,
01.364,2.097680308,,,
01.366,2.305705382,,,
01.368,2.496395033,,,
01.370,2.791097221,,,
01.372,2.860438912,,,
01.374,2.877774335,,,
01.376,2.669749261,,,
01.378,2.461724188,,,
01.380,2.201692845,,,
01.382,2.115015731,,,
01.384,2.149686577,,,
01.386,2.357711651,,,
01.388,2.531065879,,,
01.390,2.808432644,,,
01.392,2.877774335,,,
01.394,2.895109758,,,
01.396,2.652413839,,,
01.398,2.444388765,,,
01.400,2.201692845,,,
01.402,2.063009463,,,
01.404,2.080344885,,,
01.406,2.271034536,,,
01.408,2.47905961,,,
01.410,2.72175553,,,
01.412,2.791097221,,,
01.414,2.739090953,,,
01.416,2.548401302,,,
01.418,2.288369959,,,
01.420,2.04567404,,,
01.422,1.941661503,,,
01.424,1.993667771,,,
01.426,2.167022,,,
01.428,2.47905961,,,
01.430,2.687084684,,,
01.432,2.704420107,,,
01.434,2.687084684,,,
01.436,2.496395033,,,
01.438,2.219028268,,,
01.440,1.976332349,,,
01.442,1.92432608,,,
01.444,1.993667771,,,
01.446,2.219028268,,,
01.448,2.513730456,,,
01.450,2.669749261,,,
01.452,2.72175553,,,
01.454,2.669749261,,,
01.456,2.496395033,,,
01.458,2.184357422,,,
01.460,2.011003194,,,
01.462,1.958996926,,,
01.464,1.993667771,,,
01.466,2.184357422,,,
01.468,2.47905961,,,
01.470,2.669749261,,,
01.472,2.739090953,,,
01.474,2.669749261,,,
01.476,2.409717919,,,
01.478,2.080344885,,,
01.480,1.889655234,,,
01.482,1.750971852,,,
01.484,1.854984389,,,
01.486,2.080344885,,,
01.488,2.340376228,,,
01.490,2.513730456,,,
01.492,2.565736724,,,
01.494,2.687084684,,,
01.496,2.669749261,,,
01.498,2.635078416,,,
01.500,2.72175553,,,
01.502,3.033793141,,,
01.504,3.415172443,,,
01.506,3.969905973,,,
01.508,4.541974926,,,
01.510,4.75,,,
01.512,4.732664577,,,
01.514,4.403291544,,,
01.516,3.779216322,,,
01.518,3.293824483,,,
01.520,3.085799409,,,
01.522,2.756426375,,,
01.524,2.496395033,,,
01.526,2.288369959,,,
01.528,2.115015731,,,
01.530,2.097680308,,,
01.532,2.132351154,,,
01.534,2.04567404,,,
01.536,1.854984389,,,
01.538,1.542946778,,,
01.540,1.421598818,,,
01.542,1.473605087,,,
01.544,1.664294738,,,
01.546,1.92432608,,,
01.548,2.323040805,,,
01.550,2.513730456,,,
01.552,2.583072147,,,
01.554,2.513730456,,,
01.556,2.392382496,,,
01.558,2.097680308,,,
01.560,1.92432608,,,
01.562,1.941661503,,,
01.564,2.080344885,,,
01.566,2.236363691,,,
01.568,2.565736724,,,
01.570,2.687084684,,,
01.572,2.739090953,,,
01.574,2.565736724,,,
01.576,2.444388765,,,
01.578,2.132351154,,,
01.580,2.04567404,,,
01.582,1.976332349,,,
01.584,2.253699114,,,
01.586,2.427053342,,,
01.588,2.756426375,,,
01.590,2.84310349,,,
01.592,2.84310349,,,
01.594,2.687084684,,,
01.596,2.496395033,,,
01.598,2.184357422,,,
01.600,2.04567404,,,
01.602,2.028338617,,,
01.604,2.201692845,,,
01.606,2.409717919,,,
01.608,2.704420107,,,
01.610,2.808432644,,,
01.612,2.895109758,,,
01.614,2.704420107,,,
01.616,2.531065879,,,
01.618,2.236363691,,,
01.620,2.167022,,,
01.622,2.167022,,,
01.624,2.323040805,,,
01.626,2.531065879,,,
01.628,2.860438912,,,
01.630,2.947116027,,,
01.632,2.947116027,,,
01.634,2.739090953,,,
01.636,2.565736724,,,
01.638,2.323040805,,,
01.640,2.184357422,,,
01.642,2.219028268,,,
01.644,2.392382496,,,
01.646,2.583072147,,,
01.648,2.860438912,,,
01.650,2.981786872,,,
01.652,2.999122295,,,
01.654,2.791097221,,,
01.656,2.565736724,,,
01.658,2.271034536,,,
01.660,2.288369959,,,
01.662,2.288369959,,,
01.664,2.461724188,,,
01.666,2.652413839,,,
01.668,2.929780604,,,
01.670,3.016457718,,,
01.672,2.981786872,,,
01.674,2.808432644,,,
01.676,2.617742993,,,
01.678,2.392382496,,,
01.680,2.288369959,,,
01.682,2.357711651,,,
01.684,2.565736724,,,
01.686,2.84310349,,,
01.688,3.068463986,,,
01.690,3.1551411,,,
01.692,3.137805678,,,
01.694,2.964451449,,,
01.696,2.739090953,,,
01.698,2.47905961,,,
01.700,2.409717919,,,
01.702,2.496395033,,,
01.704,2.704420107,,,
01.706,2.964451449,,,
01.708,3.172476523,,,
01.710,3.259153637,,,
01.712,3.241818214,,,
01.714,3.068463986,,,
01.716,2.860438912,,,
01.718,2.652413839,,,
01.720,2.635078416,,,
01.722,2.808432644,,,
01.724,3.016457718,,,
01.726,3.328495329,,,
01.728,3.588526671,,,
01.730,3.675203785,,,
01.732,3.623197517,,,
01.734,3.415172443,,,
01.736,3.189811946,,,
01.738,2.964451449,,,
01.740,2.895109758,,,
01.742,2.947116027,,,
01.744,3.1551411,,,
01.746,3.432507866,,,
01.748,3.605862094,,,
01.750,3.709874631,,,
01.752,3.640532939,,,
01.754,3.449843288,,,
01.756,3.224482792,,,
01.758,3.051128563,,,
01.760,2.947116027,,,
01.762,3.016457718,,,
01.764,3.224482792,,,
01.766,3.467178711,,,
01.768,3.623197517,,,
01.770,3.657868362,,,
01.772,3.588526671,,,
01.774,3.293824483,,,
01.776,2.981786872,,,
01.778,2.773761798,,,
01.780,2.669749261,,,
01.782,2.72175553,,,
01.784,2.895109758,,,
01.786,3.1551411,,,
01.788,3.27648906,,,
01.790,3.345830751,,,
01.792,3.189811946,,,
01.794,2.964451449,,,
01.796,2.635078416,,,
01.798,2.409717919,,,
01.800,2.271034536,,,
01.802,2.340376228,,,
01.804,2.548401302,,,
01.806,2.860438912,,,
01.808,2.912445181,,,
01.810,2.964451449,,,
01.812,2.825768067,,,
01.814,2.635078416,,,
01.816,2.323040805,,,
01.818,2.149686577,,,
01.820,2.04567404,,,
01.822,2.149686577,,,
01.824,2.340376228,,,
01.826,2.60040757,,,
01.828,2.72175553,,,
01.830,2.756426375,,,
01.832,2.704420107,,,
01.834,2.461724188,,,
01.836,2.149686577,,,
01.838,1.976332349,,,
01.840,1.941661503,,,
01.842,2.028338617,,,
01.844,2.184357422,,,
01.846,2.548401302,,,
01.848,2.687084684,,,
01.850,2.687084684,,,
01.852,2.548401302,,,
01.854,2.444388765,,,
01.856,2.115015731,,,
01.858,1.958996926,,,
01.860,1.92432608,,,
01.862,2.04567404,,,
01.864,2.236363691,,,
01.866,2.617742993,,,
01.868,2.704420107,,,
01.870,2.72175553,,,
01.872,2.60040757,,,
01.874,2.409717919,,,
01.876,2.115015731,,,
01.878,1.976332349,,,
01.880,1.958996926,,,
01.882,2.097680308,,,
01.884,2.271034536,,,
01.886,2.60040757,,,
01.888,2.72175553,,,
01.890,2.704420107,,,
01.892,2.583072147,,,
01.894,2.357711651,,,
01.896,2.063009463,,,
01.898,1.906990657,,,
01.900,1.889655234,,,
01.902,2.063009463,,,
01.904,2.271034536,,,
01.906,2.635078416,,,
01.908,2.773761798,,,
01.910,2.791097221,,,
01.912,2.652413839,,,
01.914,2.375047073,,,
01.916,2.097680308,,,
01.918,1.941661503,,,
01.920,1.92432608,,,
01.922,2.132351154,,,
01.924,2.340376228,,,
01.926,2.669749261,,,
01.928,2.739090953,,,
01.930,2.739090953,,,
01.932,2.617742993,,,
01.934,2.392382496,,,
01.936,2.097680308,,,
01.938,1.958996926,,,
01.940,1.993667771,,,
01.942,2.219028268,,,
01.944,2.444388765,,,
01.946,2.704420107,,,
01.948,2.84310349,,,
01.950,2.791097221,,,
01.952,2.617742993,,,
01.954,2.375047073,,,
01.956,2.097680308,,,
01.958,2.011003194,,,
01.960,2.028338617,,,
01.962,2.253699114,,,
01.964,2.444388765,,,
01.966,2.773761798,,,
01.968,2.825768067,,,
01.970,2.739090953,,,
01.972,2.565736724,,,
01.974,2.305705382,,,
01.976,2.011003194,,,
01.978,1.92432608,,,
01.980,1.993667771,,,
01.982,2.219028268,,,
01.984,2.47905961,,,
01.986,2.704420107,,,
01.988,2.791097221,,,
01.990,2.72175553,,,
01.992,2.531065879,,,
01.994,2.340376228,,,
01.996,2.132351154,,,
01.998,1.993667771,,,
02.000,2.04567404,,,
02.002,2.236363691,,,
02.004,2.496395033,,,
02.006,2.704420107,,,
02.008,2.791097221,,,
02.010,2.704420107,,,
02.012,2.513730456,,,
02.014,2.219028268,,,
02.016,2.011003194,,,
02.018,1.958996926,,,
02.020,2.028338617,,,
02.022,2.236363691,,,
02.024,2.513730456,,,
02.026,2.739090953,,,
02.028,2.808432644,,,
02.030,2.773761798,,,
02.032,2.513730456,,,
02.034,2.253699114,,,
02.036,2.080344885,,,
02.038,1.976332349,,,
02.040,2.028338617,,,
02.042,2.219028268,,,
02.044,2.531065879,,,
02.046,2.72175553,,,
02.048,2.773761798,,,
02.050,2.704420107,,,
02.052,2.548401302,,,
02.054,2.288369959,,,
02.056,2.080344885,,,
02.058,1.976332349,,,
02.060,2.063009463,,,
02.062,2.236363691,,,
02.064,2.531065879,,,
02.066,2.704420107,,,
02.068,2.791097221,,,
02.070,2.72175553,,,
02.072,2.496395033,,,
02.074,2.236363691,,,
02.076,1.993667771,,,
02.078,1.92432608,,,
02.080,2.115015731,,,
02.082,2.305705382,,,
02.084,2.531065879,,,
02.086,2.756426375,,,
02.088,2.773761798,,,
02.090,2.635078416,,,
02.092,2.461724188,,,
02.094,2.219028268,,,
02.096,2.028338617,,,
02.098,1.976332349,,,
02.100,2.115015731,,,
02.102,2.305705382,,,
02.104,2.565736724,,,
02.106,2.704420107,,,
02.108,2.739090953,,,
02.110,2.652413839,,,
02.112,2.461724188,,,
02.114,2.149686577,,,
02.116,1.993667771,,,
02.118,1.958996926,,,
02.120,2.080344885,,,
02.122,2.271034536,,,
02.124,2.565736724,,,
02.126,2.72175553,,,
02.128,2.756426375,,,
02.130,2.60040757,,,
02.132,2.409717919,,,
02.134,2.149686577,,,
02.136,1.958996926,,,
02.138,1.906990657,,,
02.140,2.04567404,,,
02.142,2.219028268,,,
02.144,2.548401302,,,
02.146,2.739090953,,,
02.148,2.756426375,,,
02.150,2.60040757,,,
02.152,2.409717919,,,
02.154,2.080344885,,,
02.156,1.958996926,,,
02.158,1.941661503,,,
02.160,2.097680308,,,
02.162,2.253699114,,,
02.164,2.565736724,,,
02.166,2.704420107,,,
02.168,2.704420107,,,
02.170,2.565736724,,,
02.172,2.392382496,,,
02.174,2.04567404,,,
02.176,1.906990657,,,
02.178,1.872319812,,,
02.180,2.028338617,,,
02.182,2.184357422,,,
02.184,2.531065879,,,
02.186,2.652413839,,,
02.188,2.669749261,,,
02.190,2.548401302,,,
02.192,2.357711651,,,
02.194,2.097680308,,,
02.196,1.958996926,,,
02.198,1.958996926,,,
02.200,2.080344885,,,
02.202,2.288369959,,,
02.204,2.617742993,,,
02.206,2.72175553,,,
02.208,2.72175553,,,
02.210,2.548401302,,,
02.212,2.392382496,,,
02.214,2.063009463,,,
02.216,1.906990657,,,
02.218,1.941661503,,,
02.220,2.097680308,,,
02.222,2.305705382,,,
02.224,2.617742993,,,
02.226,2.72175553,,,
02.228,2.669749261,,,
02.230,2.513730456,,,
02.232,2.305705382,,,
02.234,2.04567404,,,
02.236,1.906990657,,,
02.238,1.906990657,,,
02.240,2.115015731,,,
02.242,2.340376228,,,
02.244,2.635078416,,,
02.246,2.756426375,,,
02.248,2.739090953,,,
02.250,2.531065879,,,
02.252,2.340376228,,,
02.254,2.080344885,,,
02.256,1.958996926,,,
02.258,1.958996926,,,
02.260,2.167022,,,
02.262,2.392382496,,,
02.264,2.635078416,,,
02.266,2.756426375,,,
02.268,2.704420107,,,
02.270,2.496395033,,,
02.272,2.288369959,,,
02.274,2.04567404,,,
02.276,1.976332349,,,
02.278,2.028338617,,,
02.280,2.236363691,,,
02.282,2.496395033,,,
02.284,2.687084684,,,
02.286,2.791097221,,,
02.288,2.808432644,,,
02.290,2.617742993,,,
02.292,2.444388765,,,
02.294,2.201692845,,,
02.296,2.115015731,,,
02.298,2.149686577,,,
02.300,2.392382496,,,
02.302,2.583072147,,,
02.304,2.825768067,,,
02.306,2.877774335,,,
02.308,2.860438912,,,
02.310,2.652413839,,,
02.312,2.409717919,,,
02.314,2.184357422,,,
02.316,2.080344885,,,
02.318,2.167022,,,
02.320,2.375047073,,,
02.322,2.635078416,,,
02.324,2.84310349,,,
02.326,2.895109758,,,
02.328,2.825768067,,,
02.330,2.617742993,,,
02.332,2.340376228,,,
02.334,2.097680308,,,
02.336,1.993667771,,,
02.338,2.115015731,,,
02.340,2.271034536,,,
02.342,2.531065879,,,
02.344,2.72175553,,,
02.346,2.808432644,,,
02.348,2.669749261,,,
02.350,2.461724188,,,
02.352,2.201692845,,,
02.354,2.011003194,,,
02.356,1.941661503,,,
02.358,1.993667771,,,
02.360,2.219028268,,,
02.362,2.47905961,,,
02.364,2.669749261,,,
02.366,2.72175553,,,
02.368,2.652413839,,,
02.370,2.444388765,,,
02.372,2.149686577,,,
02.374,1.941661503,,,
02.376,1.92432608,,,
02.378,1.993667771,,,
02.380,2.184357422,,,
02.382,2.47905961,,,
02.384,2.669749261,,,
02.386,2.704420107,,,
02.388,2.635078416,,,
02.390,2.461724188,,,
02.392,2.149686577,,,
02.394,1.958996926,,,
02.396,1.889655234,,,
02.398,2.028338617,,,
02.400,2.184357422,,,
02.402,2.496395033,,,
02.404,2.617742993,,,
02.406,2.652413839,,,
02.408,2.513730456,,,
02.410,2.288369959,,,
02.412,1.941661503,,,
02.414,1.750971852,,,
02.416,1.750971852,,,
02.418,1.820313543,,,
02.420,2.04567404,,,
02.422,2.496395033,,,
02.424,2.84310349,,,
02.426,3.172476523,,,
02.428,3.328495329,,,
02.430,3.432507866,,,
02.432,3.467178711,,,
02.434,3.640532939,,,
02.436,3.987241396,,,
02.438,4.247272738,,,
02.440,4.420626966,,,
02.442,4.576645772,,,
02.444,4.281943584,,,
02.446,4.021912241,,,
02.448,3.813887168,,,
02.450,3.39783702,,,
02.452,2.617742993,,,
02.454,2.028338617,,,
02.456,1.525611355,,,
02.458,1.386927973,,,
02.460,1.594953046,,,
02.462,1.941661503,,,
02.464,2.115015731,,,
02.466,2.167022,,,
02.468,2.011003194,,,
02.470,1.872319812,,,
02.472,1.594953046,,,
02.474,1.542946778,,,
02.476,1.612288469,,,
02.478,1.872319812,,,
02.480,2.097680308,,,
02.482,2.513730456,,,
02.484,2.652413839,,,
02.486,2.72175553,,,
02.488,2.565736724,,,
02.490,2.375047073,,,
02.492,2.063009463,,,
02.494,1.976332349,,,
02.496,1.958996926,,,
02.498,2.115015731,,,
02.500,2.357711651,,,
02.502,2.635078416,,,
02.504,2.739090953,,,
02.506,2.825768067,,,
02.508,2.635078416,,,
02.510,2.427053342,,,
02.512,2.149686577,,,
02.514,2.063009463,,,
02.516,2.04567404,,,
02.518,2.219028268,,,
02.520,2.444388765,,,
02.522,2.756426375,,,
02.524,2.84310349,,,
02.526,2.825768067,,,
02.528,2.704420107,,,
02.530,2.47905961,,,
02.532,2.201692845,,,
02.534,2.097680308,,,
02.536,2.115015731,,,
02.538,2.288369959,,,
02.540,2.47905961,,,
02.542,2.791097221,,,
02.544,2.895109758,,,
02.546,2.895109758,,,
02.548,2.704420107,,,
02.550,2.496395033,,,
02.552,2.219028268,,,
02.554,2.149686577,,,
02.556,2.167022,,,
02.558,2.340376228,,,
02.560,2.583072147,,,
02.562,2.84310349,,,
02.564,2.999122295,,,
02.566,2.929780604,,,
02.568,2.739090953,,,
02.570,2.513730456,,,
02.572,2.253699114,,,
02.574,2.167022,,,
02.576,2.219028268,,,
02.578,2.444388765,,,
02.580,2.669749261,,,
02.582,2.895109758,,,
02.584,2.981786872,,,
02.586,2.964451449,,,
02.588,2.773761798,,,
02.590,2.531065879,,,
02.592,2.305705382,,,
02.594,2.201692845,,,
02.596,2.271034536,,,
02.598,2.496395033,,,
02.600,2.756426375,,,
02.602,2.981786872,,,
02.604,3.085799409,,,
02.606,2.999122295,,,
02.608,2.808432644,,,
02.610,2.565736724,,,
02.612,2.357711651,,,
02.614,2.323040805,,,
02.616,2.375047073,,,
02.618,2.583072147,,,
02.620,2.877774335,,,
02.622,3.068463986,,,
02.624,3.137805678,,,
02.626,3.137805678,,,
02.628,2.912445181,,,
02.630,2.704420107,,,
02.632,2.531065879,,,
02.634,2.47905961,,,
02.636,2.548401302,,,
02.638,2.756426375,,,
02.640,3.120470255,,,
02.642,3.293824483,,,
02.644,3.39783702,,,
02.646,3.328495329,,,
02.648,3.137805678,,,
02.650,2.877774335,,,
02.652,2.72175553,,,
02.654,2.704420107,,,
02.656,2.825768067,,,
02.658,3.033793141,,,
02.660,3.311159906,,,
02.662,3.51918498,,,
02.664,3.588526671,,,
02.666,3.501849557,,,
02.668,3.311159906,,,
02.670,3.068463986,,,
02.672,2.912445181,,,
02.674,2.84310349,,,
02.676,2.981786872,,,
02.678,3.207147369,,,
02.680,3.501849557,,,
02.682,3.657868362,,,
02.684,3.640532939,,,
02.686,3.571191248,,,
02.688,3.380501597,,,
02.690,3.085799409,,,
02.692,2.895109758,,,
02.694,2.877774335,,,
02.696,2.964451449,,,
02.698,3.137805678,,,
02.700,3.415172443,,,
02.702,3.536520402,,,
02.704,3.51918498,,,
02.706,3.380501597,,,
02.708,3.172476523,,,
02.710,2.84310349,,,
02.712,2.617742993,,,
02.714,2.565736724,,,
02.716,2.617742993,,,
02.718,2.739090953,,,
02.720,3.016457718,,,
02.722,3.120470255,,,
02.724,3.103134832,,,
02.726,2.947116027,,,
02.728,2.72175553,,,
02.730,2.392382496,,,
02.732,2.219028268,,,
02.734,2.115015731,,,
02.736,2.271034536,,,
02.738,2.427053342,,,
02.740,2.72175553,,,
02.742,2.84310349,,,
02.744,2.825768067,,,
02.746,2.687084684,,,
02.748,2.496395033,,,
02.750,2.132351154,,,
02.752,1.993667771,,,
02.754,1.958996926,,,
02.756,2.080344885,,,
02.758,2.288369959,,,
02.760,2.565736724,,,
02.762,2.704420107,,,
02.764,2.687084684,,,
02.766,2.548401302,,,
02.768,2.375047073,,,
02.770,2.028338617,,,
02.772,1.889655234,,,
02.774,1.872319812,,,
02.776,1.993667771,,,
02.778,2.219028268,,,
02.780,2.513730456,,,
02.782,2.617742993,,,
02.784,2.617742993,,,
02.786,2.461724188,,,
02.788,2.288369959,,,
02.790,1.958996926,,,
02.792,1.854984389,,,
02.794,1.837648966,,,
02.796,1.993667771,,,
02.798,2.219028268,,,
02.800,2.531065879,,,
02.802,2.60040757,,,
02.804,2.617742993,,,
02.806,2.409717919,,,
02.808,2.253699114,,,
02.810,1.958996926,,,
02.812,1.854984389,,,
02.814,1.854984389,,,
02.816,2.011003194,,,
02.818,2.236363691,,,
02.820,2.513730456,,,
02.822,2.60040757,,,
02.824,2.617742993,,,
02.826,2.444388765,,,
02.828,2.271034536,,,
02.830,1.976332349,,,
02.832,1.889655234,,,
02.834,1.872319812,,,
02.836,2.097680308,,,
02.838,2.323040805,,,
02.840,2.583072147,,,
02.842,2.669749261,,,
02.844,2.652413839,,,
02.846,2.444388765,,,
02.848,2.271034536,,,
02.850,1.993667771,,,
02.852,1.889655234,,,
02.854,1.941661503,,,
02.856,2.132351154,,,
02.858,2.375047073,,,
02.860,2.635078416,,,
02.862,2.739090953,,,
02.864,2.635078416,,,
02.866,2.47905961,,,
02.868,2.305705382,,,
02.870,2.028338617,,,
02.872,1.941661503,,,
02.874,1.993667771,,,
02.876,2.184357422,,,
02.878,2.427053342,,,
02.880,2.687084684,,,
02.882,2.791097221,,,
02.884,2.72175553,,,
02.886,2.513730456,,,
02.888,2.271034536,,,
02.890,2.028338617,,,
02.892,1.976332349,,,
02.894,2.011003194,,,
02.896,2.219028268,,,
02.898,2.461724188,,,
02.900,2.669749261,,,
02.902,2.773761798,,,
02.904,2.704420107,,,
02.906,2.496395033,,,
02.908,2.253699114,,,
02.910,2.028338617,,,
02.912,1.958996926,,,
02.914,2.028338617,,,
02.916,2.201692845,,,
02.918,2.461724188,,,
02.920,2.652413839,,,
02.922,2.756426375,,,
02.924,2.687084684,,,
02.926,2.461724188,,,
02.928,2.219028268,,,
02.930,2.011003194,,,
02.932,1.92432608,,,
02.934,2.04567404,,,
02.936,2.201692845,,,
02.938,2.513730456,,,
02.940,2.687084684,,,
02.942,2.773761798,,,
02.944,2.704420107,,,
02.946,2.47905961,,,
02.948,2.236363691,,,
02.950,2.04567404,,,
02.952,1.993667771,,,
02.954,2.080344885,,,
02.956,2.271034536,,,
02.958,2.548401302,,,
02.960,2.739090953,,,
02.962,2.791097221,,,
02.964,2.687084684,,,
02.966,2.47905961,,,
02.968,2.184357422,,,
02.970,2.028338617,,,
02.972,1.958996926,,,
02.974,2.063009463,,,
02.976,2.236363691,,,
02.978,2.548401302,,,
02.980,2.72175553,,,
02.982,2.791097221,,,
02.984,2.669749261,,,
02.986,2.47905961,,,
02.988,2.167022,,,
02.990,1.993667771,,,
02.992,1.941661503,,,
02.994,2.063009463,,,
02.996,2.271034536,,,
02.998,2.583072147,,,
03.000,2.704420107,,,
03.002,2.756426375,,,
03.004,2.635078416,,,
03.006,2.444388765,,,
03.008,2.167022,,,
03.010,1.993667771,,,
03.012,1.92432608,,,
03.014,2.080344885,,,
03.016,2.271034536,,,
03.018,2.583072147,,,
03.020,2.704420107,,,
03.022,2.791097221,,,
03.024,2.635078416,,,
03.026,2.444388765,,,
03.028,2.132351154,,,
03.030,1.958996926,,,
03.032,1.941661503,,,
03.034,2.063009463,,,
03.036,2.288369959,,,
03.038,2.548401302,,,
03.040,2.704420107,,,
03.042,2.739090953,,,
03.044,2.60040757,,,
03.046,2.427053342,,,
03.048,2.097680308,,,
03.050,2.011003194,,,
03.052,1.976332349,,,
03.054,2.080344885,,,
03.056,2.271034536,,,
03.058,2.583072147,,,
03.060,2.669749261,,,
03.062,2.72175553,,,
03.064,2.531065879,,,
03.066,2.375047073,,,
03.068,2.080344885,,,
03.070,1.941661503,,,
03.072,1.941661503,,,
03.074,2.080344885,,,
03.076,2.288369959,,,
03.078,2.583072147,,,
03.080,2.669749261,,,
03.082,2.704420107,,,
03.084,2.531065879,,,
03.086,2.340376228,,,
03.088,2.028338617,,,
03.090,1.941661503,,,
03.092,1.906990657,,,
03.094,2.080344885,,,
03.096,2.253699114,,,
03.098,2.583072147,,,
03.100,2.704420107,,,
03.102,2.704420107,,,
03.104,2.513730456,,,
03.106,2.305705382,,,
03.108,2.011003194,,,
03.110,1.941661503,,,
03.112,1.92432608,,,
03.114,2.097680308,,,
03.116,2.305705382,,,
03.118,2.60040757,,,
03.120,2.704420107,,,
03.122,2.652413839,,,
03.124,2.496395033,,,
03.126,2.305705382,,,
03.128,1.993667771,,,
03.130,1.872319812,,,
03.132,1.906990657,,,
03.134,2.097680308,,,
03.136,2.340376228,,,
03.138,2.565736724,,,
03.140,2.687084684,,,
03.142,2.652413839,,,
03.144,2.47905961,,,
03.146,2.219028268,,,
03.148,1.993667771,,,
03.150,1.889655234,,,
03.152,1.92432608,,,
03.154,2.115015731,,,
03.156,2.392382496,,,
03.158,2.635078416,,,
03.160,2.72175553,,,
03.162,2.669749261,,,
03.164,2.47905961,,,
03.166,2.236363691,,,
03.168,2.011003194,,,
03.170,1.941661503,,,
03.172,1.941661503,,,
03.174,2.167022,,,
03.176,2.392382496,,,
03.178,2.652413839,,,
03.180,2.739090953,,,
03.182,2.652413839,,,
03.184,2.461724188,,,
03.186,2.236363691,,,
03.188,2.011003194,,,
03.190,1.92432608,,,
03.192,1.958996926,,,
03.194,2.184357422,,,
03.196,2.427053342,,,
03.198,2.635078416,,,
03.200,2.704420107,,,
03.202,2.652413839,,,
03.204,2.461724188,,,
03.206,2.219028268,,,
03.208,1.993667771,,,
03.210,1.941661503,,,
03.212,2.028338617,,,
03.214,2.219028268,,,
03.216,2.47905961,,,
03.218,2.669749261,,,
03.220,2.756426375,,,
03.222,2.652413839,,,
03.224,2.496395033,,,
03.226,2.219028268,,,
03.228,2.063009463,,,
03.230,2.011003194,,,
03.232,2.097680308,,,
03.234,2.288369959,,,
03.236,2.60040757,,,
03.238,2.773761798,,,
03.240,2.860438912,,,
03.242,2.756426375,,,
03.244,2.548401302,,,
03.246,2.271034536,,,
03.248,2.063009463,,,
03.250,2.063009463,,,
03.252,2.167022,,,
03.254,2.357711651,,,
03.256,2.635078416,,,
03.258,2.808432644,,,
03.260,2.84310349,,,
03.262,2.773761798,,,
03.264,2.60040757,,,
03.266,2.305705382,,,
03.268,2.097680308,,,
03.270,2.028338617,,,
03.272,2.132351154,,,
03.274,2.305705382,,,
03.276,2.583072147,,,
03.278,2.739090953,,,
03.280,2.773761798,,,
03.282,2.652413839,,,
03.284,2.461724188,,,
03.286,2.167022,,,
03.288,1.976332349,,,
03.290,1.92432608,,,
03.292,2.028338617,,,
03.294,2.219028268,,,
03.296,2.531065879,,,
03.298,2.652413839,,,
03.300,2.669749261,,,
03.302,2.548401302,,,
03.304,2.375047073,,,
03.306,2.063009463,,,
03.308,1.958996926,,,
03.310,1.889655234,,,
03.312,1.993667771,,,
03.314,2.219028268,,,
03.316,2.548401302,,,
03.318,2.669749261,,,
03.320,2.669749261,,,
03.322,2.531065879,,,
03.324,2.340376228,,,
03.326,2.063009463,,,
03.328,1.872319812,,,
03.330,1.872319812,,,
03.332,2.011003194,,,
03.334,2.184357422,,,
03.336,2.531065879,,,
03.338,2.669749261,,,
03.340,2.652413839,,,
03.342,2.513730456,,,
03.344,2.288369959,,,
03.346,1.941661503,,,
03.348,1.80297812,,,
03.350,1.750971852,,,
03.352,1.872319812,,,
03.354,2.063009463,,,
03.356,2.392382496,,,
03.358,2.444388765,,,
03.360,2.531065879,,,
03.362,2.531065879,,,
03.364,2.548401302,,,
03.366,2.531065879,,,
03.368,2.669749261,,,
03.370,2.912445181,,,
03.372,3.415172443,,,
03.374,3.969905973,,,
03.376,4.489968658,,,
03.378,4.75,,,
03.380,4.663322886,,,
03.382,4.247272738,,,
03.384,3.657868362,,,
03.386,3.120470255,,,
03.388,2.964451449,,,
03.390,2.704420107,,,
03.392,2.513730456,,,
03.394,2.357711651,,,
03.396,2.132351154,,,
03.398,1.993667771,,,
03.400,2.063009463,,,
03.402,1.906990657,,,
03.404,1.716301006,,,
03.406,1.508275932,,,
03.408,1.36959255,,,
03.410,1.386927973,,,
03.412,1.612288469,,,
03.414,1.872319812,,,
03.416,2.271034536,,,
03.418,2.47905961,,,
03.420,2.513730456,,,
03.422,2.409717919,,,
03.424,2.219028268,,,
03.426,1.958996926,,,
03.428,1.92432608,,,
03.430,1.976332349,,,
03.432,2.149686577,,,
03.434,2.427053342,,,
03.436,2.687084684,,,
03.438,2.773761798,,,
03.440,2.756426375,,,
03.442,2.531065879,,,
03.444,2.340376228,,,
03.446,2.080344885,,,
03.448,1.976332349,,,
03.450,2.04567404,,,
03.452,2.253699114,,,
03.454,2.496395033,,,
03.456,2.72175553,,,
03.458,2.791097221,,,
03.460,2.773761798,,,
03.462,2.565736724,,,
03.464,2.375047073,,,
03.466,2.115015731,,,
03.468,2.04567404,,,
03.470,2.080344885,,,
03.472,2.305705382,,,
03.474,2.583072147,,,
03.476,2.773761798,,,
03.478,2.877774335,,,
03.480,2.825768067,,,
03.482,2.60040757,,,
03.484,2.392382496,,,
03.486,2.132351154,,,
03.488,2.063009463,,,
03.490,2.149686577,,,
03.492,2.340376228,,,
03.494,2.60040757,,,
03.496,2.84310349,,,
03.498,2.895109758,,,
03.500,2.825768067,,,
03.502,2.635078416,,,
03.504,2.375047073,,,
03.506,2.201692845,,,
03.508,2.132351154,,,
03.510,2.167022,,,
03.512,2.357711651,,,
03.514,2.687084684,,,
03.516,2.860438912,,,
03.518,2.895109758,,,
03.520,2.860438912,,,
03.522,2.652413839,,,
03.524,2.375047073,,,
03.526,2.201692845,,,
03.528,2.167022,,,
03.530,2.253699114,,,
03.532,2.513730456,,,
03.534,2.756426375,,,
03.536,2.947116027,,,
03.538,2.999122295,,,
03.540,2.912445181,,,
03.542,2.72175553,,,
03.544,2.461724188,,,
03.546,2.253699114,,,
03.548,2.253699114,,,
03.550,2.357711651,,,
03.552,2.548401302,,,
03.554,2.84310349,,,
03.556,3.051128563,,,
03.558,3.103134832,,,
03.560,3.016457718,,,
03.562,2.825768067,,,
03.564,2.60040757,,,
03.566,2.392382496,,,
03.568,2.392382496,,,
03.570,2.531065879,,,
03.572,2.756426375,,,
03.574,3.051128563,,,
03.576,3.224482792,,,
03.578,3.27648906,,,
03.580,3.1551411,,,
03.582,3.033793141,,,
03.584,2.739090953,,,
03.586,2.60040757,,,
03.588,2.60040757,,,
03.590,2.756426375,,,
03.592,2.964451449,,,
03.594,3.241818214,,,
03.596,3.467178711,,,
03.598,3.51918498,,,
03.600,3.432507866,,,
03.602,3.27648906,,,
03.604,2.912445181,,,
03.606,2.808432644,,,
03.608,2.808432644,,,
03.610,2.964451449,,,
03.612,3.1551411,,,
03.614,3.51918498,,,
03.616,3.675203785,,,
03.618,3.657868362,,,
03.620,3.536520402,,,
03.622,3.345830751,,,
03.624,3.068463986,,,
03.626,2.929780604,,,
03.628,2.860438912,,,
03.630,3.016457718,,,
03.632,3.189811946,,,
03.634,3.553855825,,,
03.636,3.588526671,,,
03.638,3.623197517,,,
03.640,3.484514134,,,
03.642,3.27648906,,,
03.644,2.895109758,,,
03.646,2.791097221,,,
03.648,2.739090953,,,
03.650,2.84310349,,,
03.652,3.016457718,,,
03.654,3.259153637,,,
03.656,3.328495329,,,
03.658,3.345830751,,,
03.660,3.103134832,,,
03.662,2.877774335,,,
03.664,2.565736724,,,
03.666,2.375047073,,,
03.668,2.340376228,,,
03.670,2.461724188,,,
03.672,2.617742993,,,
03.674,2.912445181,,,
03.676,2.964451449,,,
03.678,2.947116027,,,
03.680,2.756426375,,,
03.682,2.548401302,,,
03.684,2.201692845,,,
03.686,2.097680308,,,
03.688,2.080344885,,,
03.690,2.271034536,,,
03.692,2.427053342,,,
03.694,2.739090953,,,
03.696,2.791097221,,,
03.698,2.756426375,,,
03.700,2.60040757,,,
03.702,2.375047073,,,
03.704,2.132351154,,,
03.706,2.011003194,,,
03.708,1.993667771,,,
03.710,2.149686577,,,
03.712,2.392382496,,,
03.714,2.669749261,,,
03.716,2.739090953,,,
03.718,2.704420107,,,
03.720,2.513730456,,,
03.722,2.305705382,,,
03.724,2.028338617,,,
03.726,1.906990657,,,
03.728,1.941661503,,,
03.730,2.132351154,,,
03.732,2.357711651,,,
03.734,2.60040757,,,
03.736,2.687084684,,,
03.738,2.687084684,,,
03.740,2.461724188,,,
03.742,2.271034536,,,
03.744,2.011003194,,,
03.746,1.906990657,,,
03.748,1.958996926,,,
03.750,2.115015731,,,
03.752,2.357711651,,,
03.754,2.617742993,,,
03.756,2.704420107,,,
03.758,2.635078416,,,
03.760,2.47905961,,,
03.762,2.219028268,,,
03.764,2.011003194,,,
03.766,1.92432608,,,
03.768,1.993667771,,,
03.770,2.184357422,,,
03.772,2.444388765,,,
03.774,2.669749261,,,
03.776,2.704420107,,,
03.778,2.669749261,,,
03.780,2.496395033,,,
03.782,2.236363691,,,
03.784,1.993667771,,,
03.786,1.941661503,,,
03.788,1.993667771,,,
03.790,2.184357422,,,
03.792,2.461724188,,,
03.794,2.669749261,,,
03.796,2.773761798,,,
03.798,2.669749261,,,
03.800,2.513730456,,,
03.802,2.219028268,,,
03.804,1.993667771,,,
03.806,1.958996926,,,
03.808,2.04567404,,,
03.810,2.219028268,,,
03.812,2.496395033,,,
03.814,2.687084684,,,
03.816,2.739090953,,,
03.818,2.652413839,,,
03.820,2.513730456,,,
03.822,2.236363691,,,
03.824,2.011003194,,,
03.826,1.976332349,,,
03.828,2.080344885,,,
03.830,2.271034536,,,
03.832,2.548401302,,,
03.834,2.72175553,,,
03.836,2.791097221,,,
03.838,2.687084684,,,
03.840,2.513730456,,,
03.842,2.201692845,,,
03.844,2.028338617,,,
03.846,1.976332349,,,
03.848,2.097680308,,,
03.850,2.271034536,,,
03.852,2.565736724,,,
03.854,2.72175553,,,
03.856,2.791097221,,,
03.858,2.687084684,,,
03.860,2.513730456,,,
03.862,2.167022,,,
03.864,2.011003194,,,
03.866,1.976332349,,,
03.868,2.063009463,,,
03.870,2.271034536,,,
03.872,2.60040757,,,
03.874,2.756426375,,,
03.876,2.773761798,,,
03.878,2.635078416,,,
03.880,2.461724188,,,
03.882,2.115015731,,,
03.884,1.993667771,,,
03.886,1.958996926,,,
03.888,2.080344885,,,
03.890,2.253699114,,,
03.892,2.583072147,,,
03.894,2.72175553,,,
03.896,2.739090953,,,
03.898,2.60040757,,,
03.900,2.409717919,,,
03.902,2.080344885,,,
03.904,1.958996926,,,
03.906,1.906990657,,,
03.908,2.063009463,,,
03.910,2.271034536,,,
03.912,2.548401302,,,
03.914,2.687084684,,,
03.916,2.704420107,,,
03.918,2.60040757,,,
03.920,2.392382496,,,
03.922,2.080344885,,,
03.924,1.92432608,,,
03.926,1.889655234,,,
03.928,2.080344885,,,
03.930,2.253699114,,,
03.932,2.583072147,,,
03.934,2.669749261,,,
03.936,2.72175553,,,
03.938,2.583072147,,,
03.940,2.323040805,,,
03.942,2.063009463,,,
03.944,1.941661503,,,
03.946,1.906990657,,,
03.948,2.063009463,,,
03.950,2.271034536,,,
03.952,2.531065879,,,
03.954,2.704420107,,,
03.956,2.704420107,,,
03.958,2.548401302,,,
03.960,2.357711651,,,
03.962,2.080344885,,,
03.964,1.958996926,,,
03.966,1.92432608,,,
03.968,2.115015731,,,
03.970,2.305705382,,,
03.972,2.583072147,,,
03.974,2.687084684,,,
03.976,2.704420107,,,
03.978,2.531065879,,,
03.980,2.357711651,,,
03.982,2.063009463,,,
03.984,1.941661503,,,
03.986,1.958996926,,,
03.988,2.097680308,,,
03.990,2.323040805,,,
03.992,2.617742993,,,
03.994,2.72175553,,,
03.996,2.704420107,,,
03.998,2.531065879,,,
04.000,2.305705382,,,
04.002,2.028338617,,,
04.004,1.958996926,,,
04.006,1.941661503,,,
04.008,2.132351154,,,
04.010,2.375047073,,,
04.012,2.617742993,,,
04.014,2.669749261,,,
04.016,2.687084684,,,
04.018,2.531065879,,,
04.020,2.288369959,,,
04.022,2.04567404,,,
04.024,1.941661503,,,
04.026,1.958996926,,,
04.028,2.115015731,,,
04.030,2.375047073,,,
04.032,2.617742993,,,
04.034,2.72175553,,,
04.036,2.652413839,,,
04.038,2.47905961,,,
04.040,2.271034536,,,
04.042,2.028338617,,,
04.044,1.941661503,,,
04.046,1.993667771,,,
04.048,2.167022,,,
04.050,2.409717919,,,
04.052,2.669749261,,,
04.054,2.739090953,,,
04.056,2.687084684,,,
04.058,2.513730456,,,
04.060,2.271034536,,,
04.062,2.011003194,,,
04.064,1.941661503,,,
04.066,2.011003194,,,
04.068,2.201692845,,,
04.070,2.461724188,,,
04.072,2.669749261,,,
04.074,2.756426375,,,
04.076,2.704420107,,,
04.078,2.513730456,,,
04.080,2.288369959,,,
04.082,2.097680308,,,
04.084,2.028338617,,,
04.086,2.097680308,,,
04.088,2.305705382,,,
04.090,2.583072147,,,
04.092,2.791097221,,,
04.094,2.860438912,,,
04.096,2.808432644,,,
04.098,2.583072147,,,
04.100,2.340376228,,,
04.102,2.132351154,,,
04.104,2.04567404,,,
04.106,2.149686577,,,
04.108,2.305705382,,,
04.110,2.617742993,,,
04.112,2.808432644,,,
04.114,2.895109758,,,
04.116,2.808432644,,,
04.118,2.583072147,,,
04.120,2.305705382,,,
04.122,2.132351154,,,
04.124,2.063009463,,,
04.126,2.167022,,,
04.128,2.323040805,,,
04.130,2.652413839,,,
04.132,2.773761798,,,
04.134,2.825768067,,,
04.136,2.704420107,,,
04.138,2.496395033,,,
04.140,2.184357422,,,
04.142,2.011003194,,,
04.144,1.92432608,,,
04.146,2.080344885,,,
04.148,2.236363691,,,
04.150,2.531065879,,,
04.152,2.669749261,,,
04.154,2.704420107,,,
04.156,2.548401302,,,
04.158,2.427053342,,,
04.160,2.115015731,,,
04.162,1.958996926,,,
04.164,1.889655234,,,
04.166,2.011003194,,,
04.168,2.201692845,,,
04.170,2.496395033,,,
04.172,2.652413839,,,
04.174,2.687084684,,,
04.176,2.565736724,,,
04.178,2.375047073,,,
04.180,2.080344885,,,
04.182,1.906990657,,,
04.184,1.854984389,,,
04.186,1.993667771,,,
04.188,2.184357422,,,
04.190,2.513730456,,,
04.192,2.652413839,,,
04.194,2.687084684,,,
04.196,2.548401302,,,
04.198,2.375047073,,,
04.200,2.097680308,,,
04.202,1.906990657,,,
04.204,1.872319812,,,
04.206,1.993667771,,,
04.208,2.167022,,,
04.210,2.444388765,,,
04.212,2.565736724,,,
04.214,2.513730456,,,
04.216,2.357711651,,,
04.218,2.184357422,,,
04.220,1.872319812,,,
04.222,1.733636429,,,
04.224,1.750971852,,,
04.226,2.097680308,,,
04.228,2.513730456,,,
04.230,3.068463986,,,
04.232,3.432507866,,,
04.234,3.727210054,,,
04.236,3.848558013,,,
04.238,4.004576819,,,
04.240,3.987241396,,,
04.242,3.935235127,,,
04.244,3.779216322,,,
04.246,3.657868362,,,
04.248,3.39783702,,,
04.250,3.571191248,,,
04.252,3.675203785,,,
04.254,3.345830751,,,
04.256,2.825768067,,,
04.258,2.201692845,,,
04.260,1.438934241,,,
04.262,1.178902899,,,
04.264,1.282915436,,,
04.266,1.490940509,,,
04.268,1.698965583,,,
04.270,2.04567404,,,
04.272,2.149686577,,,
04.274,2.167022,,,
04.276,2.028338617,,,
04.278,1.889655234,,,
04.280,1.716301006,,,
04.282,1.698965583,,,
04.284,1.768307275,,,
04.286,1.993667771,,,
04.288,2.288369959,,,
04.290,2.583072147,,,
04.292,2.704420107,,,
04.294,2.72175553,,,
04.296,2.513730456,,,
04.298,2.323040805,,,
04.300,2.063009463,,,
04.302,1.993667771,,,
04.304,2.028338617,,,
04.306,2.184357422,,,
04.308,2.409717919,,,
04.310,2.704420107,,,
04.312,2.773761798,,,
04.314,2.739090953,,,
04.316,2.565736724,,,
04.318,2.375047073,,,
04.320,2.080344885,,,
04.322,2.011003194,,,
04.324,2.080344885,,,
04.326,2.253699114,,,
04.328,2.496395033,,,
04.330,2.756426375,,,
04.332,2.808432644,,,
04.334,2.773761798,,,
04.336,2.565736724,,,
04.338,2.340376228,,,
04.340,2.115015731,,,
04.342,2.011003194,,,
04.344,2.097680308,,,
04.346,2.253699114,,,
04.348,2.531065879,,,
04.350,2.773761798,,,
04.352,2.860438912,,,
04.354,2.791097221,,,
04.356,2.617742993,,,
04.358,2.357711651,,,
04.360,2.132351154,,,
04.362,2.080344885,,,
04.364,2.149686577,,,
04.366,2.323040805,,,
04.368,2.60040757,,,
04.370,2.808432644,,,
04.372,2.912445181,,,
04.374,2.860438912,,,
04.376,2.652413839,,,
04.378,2.409717919,,,
04.380,2.167022,,,
04.382,2.115015731,,,
04.384,2.201692845,,,
04.386,2.409717919,,,
04.388,2.687084684,,,
04.390,2.895109758,,,
04.392,2.964451449,,,
04.394,2.877774335,,,
04.396,2.704420107,,,
04.398,2.461724188,,,
04.400,2.305705382,,,
04.402,2.236363691,,,
04.404,2.305705382,,,
04.406,2.513730456,,,
04.408,2.808432644,,,
04.410,2.999122295,,,
04.412,3.068463986,,,
04.414,2.981786872,,,
04.416,2.808432644,,,
04.418,2.548401302,,,
04.420,2.340376228,,,
04.422,2.288369959,,,
04.424,2.409717919,,,
04.426,2.635078416,,,
04.428,2.929780604,,,
04.430,3.103134832,,,
04.432,3.189811946,,,
04.434,3.120470255,,,
04.436,2.947116027,,,
04.438,2.687084684,,,
04.440,2.531065879,,,
04.442,2.461724188,,,
04.444,2.617742993,,,
04.446,2.808432644,,,
04.448,3.137805678,,,
04.450,3.311159906,,,
04.452,3.39783702,,,
04.454,3.27648906,,,
04.456,3.120470255,,,
04.458,2.84310349,,,
04.460,2.704420107,,,
04.462,2.687084684,,,
04.464,2.808432644,,,
04.466,3.033793141,,,
04.468,3.363166174,,,
04.470,3.51918498,,,
04.472,3.553855825,,,
04.474,3.432507866,,,
04.476,3.259153637,,,
04.478,2.964451449,,,
04.480,2.791097221,,,
04.482,2.791097221,,,
04.484,2.912445181,,,
04.486,3.085799409,,,
04.488,3.415172443,,,
04.490,3.588526671,,,
04.492,3.571191248,,,
04.494,3.432507866,,,
04.496,3.27648906,,,
04.498,2.947116027,,,
04.500,2.808432644,,,
04.502,2.791097221,,,
04.504,2.895109758,,,
04.506,3.033793141,,,
04.508,3.328495329,,,
04.510,3.39783702,,,
04.512,3.380501597,,,
04.514,3.241818214,,,
04.516,3.016457718,,,
04.518,2.635078416,,,
04.520,2.461724188,,,
04.522,2.392382496,,,
04.524,2.531065879,,,
04.526,2.669749261,,,
04.528,2.912445181,,,
04.530,2.999122295,,,
04.532,2.981786872,,,
04.534,2.825768067,,,
04.536,2.60040757,,,
04.538,2.271034536,,,
04.540,2.115015731,,,
04.542,2.080344885,,,
04.544,2.201692845,,,
04.546,2.375047073,,,
04.548,2.669749261,,,
04.550,2.756426375,,,
04.552,2.756426375,,,
04.554,2.565736724,,,
04.556,2.357711651,,,
04.558,2.04567404,,,
04.560,1.92432608,,,
04.562,1.92432608,,,
04.564,2.063009463,,,
04.566,2.288369959,,,
04.568,2.583072147,,,
04.570,2.652413839,,,
04.572,2.652413839,,,
04.574,2.461724188,,,
04.576,2.271034536,,,
04.578,2.011003194,,,
04.580,1.872319812,,,
04.582,1.872319812,,,
04.584,2.028338617,,,
04.586,2.253699114,,,
04.588,2.565736724,,,
04.590,2.652413839,,,
04.592,2.617742993,,,
04.594,2.427053342,,,
04.596,2.219028268,,,
04.598,1.941661503,,,
04.600,2.219028268,,,
04.602,1.976332349,,,
04.604,1.872319812,,,
04.606,1.958996926,,,
04.608,2.115015731,,,
04.610,2.409717919,,,
04.612,2.617742993,,,
04.614,2.704420107,,,
04.616,2.635078416,,,
04.618,2.461724188,,,
04.620,2.201692845,,,
04.622,1.993667771,,,
04.624,1.92432608,,,
04.626,1.976332349,,,
04.628,2.201692845,,,
04.630,2.461724188,,,
04.632,2.669749261,,,
04.634,2.739090953,,,
04.636,2.669749261,,,
04.638,2.461724188,,,
04.640,2.219028268,,,
04.642,2.028338617,,,
04.644,1.92432608,,,
04.646,2.028338617,,,
04.648,2.201692845,,,
04.650,2.513730456,,,
04.652,2.669749261,,,
04.654,2.739090953,,,
04.656,2.687084684,,,
04.658,2.444388765,,,
04.660,2.201692845,,,
04.662,1.993667771,,,
04.664,1.941661503,,,
04.666,2.04567404,,,
04.668,2.201692845,,,
04.670,2.47905961,,,
04.672,2.687084684,,,
04.674,2.756426375,,,
04.676,2.652413839,,,
04.678,2.461724188,,,
04.680,2.184357422,,,
04.682,1.993667771,,,
04.684,1.958996926,,,
04.686,2.04567404,,,
04.688,2.201692845,,,
04.690,2.548401302,,,
04.692,2.669749261,,,
04.694,2.704420107,,,
04.696,2.60040757,,,
04.698,2.409717919,,,
04.700,2.115015731,,,
04.702,1.958996926,,,
04.704,1.92432608,,,
04.706,2.028338617,,,
04.708,2.184357422,,,
04.710,2.531065879,,,
04.712,2.669749261,,,
04.714,2.704420107,,,
04.716,2.583072147,,,
04.718,2.392382496,,,
04.720,2.115015731,,,
04.722,1.941661503,,,
04.724,1.889655234,,,
04.726,2.011003194,,,
04.728,2.184357422,,,
04.730,2.47905961,,,
04.732,2.652413839,,,
04.734,2.704420107,,,
04.736,2.565736724,,,
04.738,2.392382496,,,
04.740,2.080344885,,,
04.742,1.92432608,,,
04.744,1.889655234,,,
04.746,1.976332349,,,
04.748,2.167022,,,
04.750,2.513730456,,,
04.752,2.635078416,,,
04.754,2.669749261,,,
04.756,2.531065879,,,
04.758,2.340376228,,,
04.760,2.04567404,,,
04.762,1.889655234,,,
04.764,1.872319812,,,
04.766,2.011003194,,,
04.768,2.167022,,,
04.770,2.496395033,,,
04.772,2.617742993,,,
04.774,2.652413839,,,
04.776,2.513730456,,,
04.778,2.323040805,,,
04.780,1.993667771,,,
04.782,1.889655234,,,
04.784,1.854984389,,,
04.786,1.993667771,,,
04.788,2.219028268,,,
04.790,2.496395033,,,
04.792,2.635078416,,,
04.794,2.635078416,,,
04.796,2.47905961,,,
04.798,2.305705382,,,
04.800,1.976332349,,,
04.802,1.854984389,,,
04.804,1.889655234,,,
04.806,2.063009463,,,
04.808,2.253699114,,,
04.810,2.548401302,,,
04.812,2.652413839,,,
04.814,2.652413839,,,
04.816,2.47905961,,,
04.818,2.305705382,,,
04.820,1.958996926,,,
04.822,1.854984389,,,
04.824,1.889655234,,,
04.826,2.063009463,,,
04.828,2.288369959,,,
04.830,2.583072147,,,
04.832,2.652413839,,,
04.834,2.687084684,,,
04.836,2.47905961,,,
04.838,2.271034536,,,
04.840,1.976332349,,,
04.842,1.889655234,,,
04.844,1.906990657,,,
04.846,2.115015731,,,
04.848,2.323040805,,,
04.850,2.60040757,,,
04.852,2.669749261,,,
04.854,2.669749261,,,
04.856,2.496395033,,,
04.858,2.271034536,,,
04.860,1.993667771,,,
04.862,1.889655234,,,
04.864,1.889655234,,,
04.866,2.080344885,,,
04.868,2.340376228,,,
04.870,2.583072147,,,
04.872,2.72175553,,,
04.874,2.652413839,,,
04.876,2.47905961,,,
04.878,2.253699114,,,
04.880,1.993667771,,,
04.882,1.92432608,,,
04.884,1.941661503,,,
04.886,2.167022,,,
04.888,2.375047073,,,
04.890,2.635078416,,,
04.892,2.704420107,,,
04.894,2.652413839,,,
04.896,2.461724188,,,
04.898,2.219028268,,,
04.900,1.993667771,,,
04.902,1.906990657,,,
04.904,1.958996926,,,
04.906,2.184357422,,,
04.908,2.427053342,,,
04.910,2.669749261,,,
04.912,2.739090953,,,
04.914,2.669749261,,,
04.916,2.444388765,,,
04.918,2.219028268,,,
04.920,1.976332349,,,
04.922,1.92432608,,,
04.924,1.993667771,,,
04.926,2.201692845,,,
04.928,2.496395033,,,
04.930,2.704420107,,,
04.932,2.739090953,,,
04.934,2.669749261,,,
04.936,2.461724188,,,
04.938,2.219028268,,,
04.940,2.011003194,,,
04.942,1.92432608,,,
04.944,2.028338617,,,
04.946,2.184357422,,,
04.948,2.513730456,,,
04.950,2.704420107,,,
04.952,2.756426375,,,
04.954,2.687084684,,,
04.956,2.496395033,,,
04.958,2.219028268,,,
04.960,2.04567404,,,
04.962,2.028338617,,,
04.964,2.132351154,,,
04.966,2.340376228,,,
04.968,2.617742993,,,
04.970,2.825768067,,,
04.972,2.860438912,,,
04.974,2.773761798,,,
04.976,2.60040757,,,
04.978,2.305705382,,,
04.980,2.097680308,,,
04.982,2.04567404,,,
04.984,2.184357422,,,
04.986,2.392382496,,,
04.988,2.687084684,,,
04.990,2.84310349,,,
04.992,2.912445181,,,
04.994,2.791097221,,,
04.996,2.617742993,,,
04.998,2.323040805,,,
05.000,2.132351154,,,
05.002,2.097680308,,,
05.004,2.184357422,,,
05.006,2.340376228,,,
05.008,2.669749261,,,
05.010,2.773761798,,,
05.012,2.791097221,,,
05.014,2.652413839,,,
05.016,2.496395033,,,
05.018,2.184357422,,,
05.020,2.028338617,,,
05.022,1.958996926,,,
05.024,2.063009463,,,
05.026,2.253699114,,,
05.028,2.583072147,,,
05.030,2.72175553,,,
05.032,2.739090953,,,
05.034,2.60040757,,,
05.036,2.409717919,,,
05.038,2.115015731,,,
05.040,1.958996926,,,
05.042,1.958996926,,,
05.044,2.080344885,,,
05.046,2.253699114,,,
05.048,2.60040757,,,
05.050,2.72175553,,,
05.052,2.773761798,,,
05.054,2.635078416,,,
05.056,2.444388765,,,
05.058,2.115015731,,,
05.060,1.958996926,,,
05.062,1.993667771,,,
05.064,2.115015731,,,
05.066,2.288369959,,,
05.068,2.617742993,,,
05.070,2.72175553,,,
05.072,2.739090953,,,
05.074,2.583072147,,,
05.076,2.392382496,,,
05.078,2.115015731,,,
05.080,1.958996926,,,
05.082,1.92432608,,,
05.084,1.993667771,,,
05.086,2.201692845,,,
05.088,2.444388765,,,
05.090,2.565736724,,,
05.092,2.583072147,,,
05.094,2.409717919,,,
05.096,2.340376228,,,
05.098,2.201692845,,,
05.100,2.271034536,,,
05.102,2.565736724,,,
05.104,3.016457718,,,
05.106,3.536520402,,,
05.108,4.125924778,,,
05.110,4.576645772,,,
05.112,4.732664577,,,
05.114,4.645987463,,,
05.116,4.316614429,,,
05.118,3.727210054,,,
05.120,3.172476523,,,
05.122,3.051128563,,,
05.124,3.137805678,,,
05.126,3.051128563,,,
05.128,2.981786872,,,
05.130,2.704420107,,,
05.132,2.271034536,,,
05.134,1.993667771,,,
05.136,1.80297812,,,
05.138,1.577617624,,,
05.140,1.508275932,,,
05.142,1.594953046,,,
05.144,1.785642697,,,
05.146,2.04567404,,,
05.148,2.409717919,,,
05.150,2.548401302,,,
05.152,2.60040757,,,
05.154,2.444388765,,,
05.156,2.305705382,,,
05.158,2.097680308,,,
05.160,1.993667771,,,
05.162,2.04567404,,,
05.164,2.236363691,,,
05.166,2.531065879,,,
05.168,2.773761798,,,
05.170,2.825768067,,,
05.172,2.825768067,,,
05.174,2.635078416,,,
05.176,2.427053342,,,
05.178,2.184357422,,,
05.180,2.097680308,,,
05.182,2.149686577,,,
05.184,2.357711651,,,
05.186,2.60040757,,,
05.188,2.808432644,,,
05.190,2.929780604,,,
05.192,2.877774335,,,
05.194,2.669749261,,,
05.196,2.461724188,,,
05.198,2.201692845,,,
05.200,2.097680308,,,
05.202,2.184357422,,,
05.204,2.375047073,,,
05.206,2.652413839,,,
05.208,2.860438912,,,
05.210,2.964451449,,,
05.212,2.912445181,,,
05.214,2.704420107,,,
05.216,2.444388765,,,
05.218,2.236363691,,,
05.220,2.167022,,,
05.222,2.236363691,,,
05.224,2.427053342,,,
05.226,2.687084684,,,
05.228,2.860438912,,,
05.230,2.964451449,,,
05.232,2.877774335,,,
05.234,2.687084684,,,
05.236,2.444388765,,,
05.238,2.219028268,,,
05.240,2.149686577,,,
05.242,2.236363691,,,
05.244,2.496395033,,,
05.246,2.756426375,,,
05.248,2.981786872,,,
05.250,2.999122295,,,
05.252,2.929780604,,,
05.254,2.72175553,,,
05.256,2.47905961,,,
05.258,2.253699114,,,
05.260,2.236363691,,,
05.262,2.305705382,,,
05.264,2.531065879,,,
05.266,2.808432644,,,
05.268,3.016457718,,,
05.270,3.033793141,,,
05.272,2.947116027,,,
05.274,2.791097221,,,
05.276,2.513730456,,,
05.278,2.340376228,,,
05.280,2.305705382,,,
05.282,2.409717919,,,
05.284,2.617742993,,,
05.286,2.947116027,,,
05.288,3.120470255,,,
05.290,3.172476523,,,
05.292,3.068463986,,,
05.294,2.912445181,,,
05.296,2.617742993,,,
05.298,2.444388765,,,
05.300,2.409717919,,,
05.302,2.548401302,,,
05.304,2.756426375,,,
05.306,3.085799409,,,
05.308,3.224482792,,,
05.310,3.259153637,,,
05.312,3.207147369,,,
05.314,3.051128563,,,
05.316,2.756426375,,,
05.318,2.635078416,,,
05.320,2.583072147,,,
05.322,2.756426375,,,
05.324,2.964451449,,,
05.326,3.27648906,,,
05.328,3.432507866,,,
05.330,3.501849557,,,
05.332,3.432507866,,,
05.334,3.189811946,,,
05.336,2.929780604,,,
05.338,2.808432644,,,
05.340,2.791097221,,,
05.342,2.929780604,,,
05.344,3.137805678,,,
05.346,3.484514134,,,
05.348,3.605862094,,,
05.350,3.605862094,,,
05.352,3.484514134,,,
05.354,3.293824483,,,
05.356,3.033793141,,,
05.358,2.895109758,,,
05.360,2.84310349,,,
05.362,2.999122295,,,
05.364,3.189811946,,,
05.366,3.501849557,,,
05.368,3.623197517,,,
05.370,3.605862094,,,
05.372,3.432507866,,,
05.374,3.224482792,,,
05.376,2.912445181,,,
05.378,2.756426375,,,
05.380,2.739090953,,,
05.382,2.860438912,,,
05.384,3.016457718,,,
05.386,3.293824483,,,
05.388,3.363166174,,,
05.390,3.311159906,,,
05.392,3.103134832,,,
05.394,2.895109758,,,
05.396,2.548401302,,,
05.398,2.375047073,,,
05.400,2.375047073,,,
05.402,2.496395033,,,
05.404,2.635078416,,,
05.406,2.895109758,,,
05.408,3.016457718,,,
05.410,2.981786872,,,
05.412,2.773761798,,,
05.414,2.548401302,,,
05.416,2.236363691,,,
05.418,2.097680308,,,
05.420,2.080344885,,,
05.422,2.253699114,,,
05.424,2.444388765,,,
05.426,2.72175553,,,
05.428,2.825768067,,,
05.430,2.791097221,,,
05.432,2.60040757,,,
05.434,2.357711651,,,
05.436,2.063009463,,,
05.438,1.993667771,,,
05.440,1.976332349,,,
05.442,2.167022,,,
05.444,2.392382496,,,
05.446,2.652413839,,,
05.448,2.739090953,,,
05.450,2.739090953,,,
05.452,2.531065879,,,
05.454,2.305705382,,,
05.456,2.04567404,,,
05.458,1.92432608,,,
05.460,1.958996926,,,
05.462,2.149686577,,,
05.464,2.392382496,,,
05.466,2.635078416,,,
05.468,2.756426375,,,
05.470,2.687084684,,,
05.472,2.461724188,,,
05.474,2.253699114,,,
05.476,2.011003194,,,
05.478,1.906990657,,,
05.480,1.941661503,,,
05.482,2.132351154,,,
05.484,2.427053342,,,
05.486,2.635078416,,,
05.488,2.72175553,,,
05.490,2.652413839,,,
05.492,2.496395033,,,
05.494,2.219028268,,,
05.496,2.028338617,,,
05.498,1.906990657,,,
05.500,2.011003194,,,
05.502,2.201692845,,,
05.504,2.444388765,,,
05.506,2.635078416,,,
05.508,2.72175553,,,
05.510,2.635078416,,,
05.512,2.461724188,,,
05.514,2.201692845,,,
05.516,2.011003194,,,
05.518,1.958996926,,,
05.520,2.028338617,,,
05.522,2.236363691,,,
05.524,2.513730456,,,
05.526,2.687084684,,,
05.528,2.756426375,,,
05.530,2.704420107,,,
05.532,2.496395033,,,
05.534,2.219028268,,,
05.536,1.993667771,,,
05.538,1.941661503,,,
05.540,2.028338617,,,
05.542,2.219028268,,,
05.544,2.548401302,,,
05.546,2.704420107,,,
05.548,2.773761798,,,
05.550,2.687084684,,,
05.552,2.496395033,,,
05.554,2.219028268,,,
05.556,2.028338617,,,
05.558,1.976332349,,,
05.560,2.04567404,,,
05.562,2.271034536,,,
05.564,2.565736724,,,
05.566,2.72175553,,,
05.568,2.756426375,,,
05.570,2.687084684,,,
05.572,2.496395033,,,
05.574,2.201692845,,,
05.576,2.028338617,,,
05.578,1.976332349,,,
05.580,2.080344885,,,
05.582,2.271034536,,,
05.584,2.583072147,,,
05.586,2.72175553,,,
05.588,2.773761798,,,
05.590,2.669749261,,,
05.592,2.47905961,,,
05.594,2.184357422,,,
05.596,2.011003194,,,
05.598,1.993667771,,,
05.600,2.080344885,,,
05.602,2.305705382,,,
05.604,2.583072147,,,
05.606,2.72175553,,,
05.608,2.773761798,,,
05.610,2.687084684,,,
05.612,2.496395033,,,
05.614,2.184357422,,,
05.616,2.011003194,,,
05.618,1.993667771,,,
05.620,2.132351154,,,
05.622,2.288369959,,,
05.624,2.60040757,,,
05.626,2.756426375,,,
05.628,2.791097221,,,
05.630,2.635078416,,,
05.632,2.461724188,,,
05.634,2.167022,,,
05.636,2.028338617,,,
05.638,1.976332349,,,
05.640,2.132351154,,,
05.642,2.253699114,,,
05.644,2.652413839,,,
05.646,2.72175553,,,
05.648,2.756426375,,,
05.650,2.617742993,,,
05.652,2.409717919,,,
05.654,2.115015731,,,
05.656,1.958996926,,,
05.658,1.958996926,,,
05.660,2.115015731,,,
05.662,2.323040805,,,
05.664,2.60040757,,,
05.666,2.756426375,,,
05.668,2.72175553,,,
05.670,2.583072147,,,
05.672,2.375047073,,,
05.674,2.080344885,,,
05.676,1.958996926,,,
05.678,1.941661503,,,
05.680,2.132351154,,,
05.682,2.305705382,,,
05.684,2.617742993,,,
05.686,2.756426375,,,
05.688,2.756426375,,,
05.690,2.583072147,,,
05.692,2.409717919,,,
05.694,2.097680308,,,
05.696,1.976332349,,,
05.698,1.958996926,,,
05.700,2.149686577,,,
05.702,2.305705382,,,
05.704,2.617742993,,,
05.706,2.72175553,,,
05.708,2.704420107,,,
05.710,2.531065879,,,
05.712,2.323040805,,,
05.714,2.028338617,,,
05.716,1.976332349,,,
05.718,1.958996926,,,
05.720,2.132351154,,,
05.722,2.323040805,,,
05.724,2.617742993,,,
05.726,2.687084684,,,
05.728,2.669749261,,,
05.730,2.513730456,,,
05.732,2.253699114,,,
05.734,1.976332349,,,
05.736,1.92432608,,,
05.738,1.976332349,,,
05.740,2.149686577,,,
05.742,2.357711651,,,
05.744,2.652413839,,,
05.746,2.704420107,,,
05.748,2.687084684,,,
05.750,2.513730456,,,
05.752,2.288369959,,,
05.754,2.011003194,,,
05.756,1.906990657,,,
05.758,1.976332349,,,
05.760,2.167022,,,
05.762,2.375047073,,,
05.764,2.652413839,,,
05.766,2.704420107,,,
05.768,2.669749261,,,
05.770,2.444388765,,,
05.772,2.219028268,,,
05.774,1.976332349,,,
05.776,1.872319812,,,
05.778,1.958996926,,,
05.780,2.167022,,,
05.782,2.427053342,,,
05.784,2.635078416,,,
05.786,2.704420107,,,
05.788,2.652413839,,,
05.790,2.444388765,,,
05.792,2.219028268,,,
05.794,1.993667771,,,
05.796,1.906990657,,,
05.798,1.958996926,,,
05.800,2.167022,,,
05.802,2.427053342,,,
05.804,2.635078416,,,
05.806,2.739090953,,,
05.808,2.635078416,,,
05.810,2.496395033,,,
05.812,2.201692845,,,
05.814,2.011003194,,,
05.816,1.906990657,,,
05.818,1.976332349,,,
05.820,2.184357422,,,
05.822,2.47905961,,,
05.824,2.652413839,,,
05.826,2.773761798,,,
05.828,2.687084684,,,
05.830,2.461724188,,,
05.832,2.149686577,,,
05.834,1.941661503,,,
05.836,1.941661503,,,
05.838,1.976332349,,,
05.840,2.167022,,,
05.842,2.461724188,,,
05.844,2.687084684,,,
05.846,2.739090953,,,
05.848,2.617742993,,,
05.850,2.444388765,,,
05.852,2.149686577,,,
05.854,2.011003194,,,
05.856,1.92432608,,,
05.858,2.028338617,,,
05.860,2.219028268,,,
05.862,2.531065879,,,
05.864,2.669749261,,,
05.866,2.739090953,,,
05.868,2.635078416,,,
05.870,2.461724188,,,
05.872,2.167022,,,
05.874,1.993667771,,,
05.876,1.941661503,,,
05.878,2.080344885,,,
05.880,2.253699114,,,
05.882,2.583072147,,,
05.884,2.756426375,,,
05.886,2.791097221,,,
05.888,2.704420107,,,
05.890,2.531065879,,,
05.892,2.219028268,,,
05.894,2.063009463,,,
05.896,2.04567404,,,
05.898,2.184357422,,,
05.900,2.392382496,,,
05.902,2.739090953,,,
05.904,2.825768067,,,
05.906,2.877774335,,,
05.908,2.739090953,,,
05.910,2.565736724,,,
05.912,2.271034536,,,
05.914,2.132351154,,,
05.916,2.080344885,,,
05.918,2.236363691,,,
05.920,2.409717919,,,
05.922,2.72175553,,,
05.924,2.860438912,,,
05.926,2.895109758,,,
05.928,2.739090953,,,
05.930,2.548401302,,,
05.932,2.219028268,,,
05.934,2.097680308,,,
05.936,2.063009463,,,
05.938,2.167022,,,
05.940,2.323040805,,,
05.942,2.652413839,,,
05.944,2.773761798,,,
05.946,2.791097221,,,
05.948,2.635078416,,,
05.950,2.409717919,,,
05.952,2.080344885,,,
05.954,1.958996926,,,
05.956,1.941661503,,,
05.958,2.063009463,,,
05.960,2.271034536,,,
05.962,2.583072147,,,
05.964,2.687084684,,,
05.966,2.687084684,,,
05.968,2.513730456,,,
05.970,2.340376228,,,
05.972,2.028338617,,,
05.974,1.92432608,,,
05.976,1.906990657,,,
05.978,2.04567404,,,
05.980,2.253699114,,,
05.982,2.548401302,,,
05.984,2.704420107,,,
05.986,2.652413839,,,
05.988,2.47905961,,,
05.990,2.305705382,,,
05.992,1.993667771,,,
05.994,1.872319812,,,
05.996,1.889655234,,,
05.998,2.063009463,,,
06.000,2.236363691,,,
06.002,2.565736724,,,
06.004,2.687084684,,,
06.006,2.669749261,,,
06.008,2.47905961,,,
06.010,2.219028268,,,
06.012,1.889655234,,,
06.014,1.750971852,,,
06.016,1.733636429,,,
06.018,1.92432608,,,
06.020,2.115015731,,,
06.022,2.409717919,,,
06.024,2.617742993,,,
06.026,2.773761798,,,
06.028,2.791097221,,,
06.030,2.860438912,,,
06.032,2.877774335,,,
06.034,3.103134832,,,
06.036,3.415172443,,,
06.038,3.935235127,,,
06.040,4.333949852,,,
06.042,4.62865204,,,
06.044,4.62865204,,,
06.046,4.299279007,,,
06.048,3.640532939,,,
06.050,3.328495329,,,
06.052,2.964451449,,,
06.054,2.531065879,,,
06.056,2.219028268,,,
06.058,1.993667771,,,
06.060,1.872319812,,,
06.062,2.011003194,,,
06.064,2.097680308,,,
06.066,2.115015731,,,
06.068,1.958996926,,,
06.070,1.750971852,,,
06.072,1.525611355,,,
06.074,1.508275932,,,
06.076,1.646959315,,,
06.078,1.92432608,,,
06.080,2.253699114,,,
06.082,2.548401302,,,
06.084,2.652413839,,,
06.086,2.652413839,,,
06.088,2.461724188,,,
06.090,2.236363691,,,
06.092,2.011003194,,,
06.094,1.92432608,,,
06.096,2.011003194,,,
06.098,2.236363691,,,
06.100,2.513730456,,,
06.102,2.687084684,,,
06.104,2.791097221,,,
06.106,2.756426375,,,
06.108,2.531065879,,,
06.110,2.288369959,,,
06.112,2.097680308,,,
06.114,2.011003194,,,
06.116,2.132351154,,,
06.118,2.288369959,,,
06.120,2.548401302,,,
06.122,2.739090953,,,
06.124,2.808432644,,,
06.126,2.739090953,,,
06.128,2.565736724,,,
06.130,2.271034536,,,
06.132,2.080344885,,,
06.134,2.011003194,,,
06.136,2.132351154,,,
06.138,2.357711651,,,
06.140,2.669749261,,,
06.142,2.808432644,,,
06.144,2.877774335,,,
06.146,2.756426375,,,
06.148,2.583072147,,,
06.150,2.323040805,,,
06.152,2.132351154,,,
06.154,2.097680308,,,
06.156,2.184357422,,,
06.158,2.427053342,,,
06.160,2.687084684,,,
06.162,2.877774335,,,
06.164,2.912445181,,,
06.166,2.808432644,,,
06.168,2.635078416,,,
06.170,2.323040805,,,
06.172,2.149686577,,,
06.174,2.080344885,,,
06.176,2.219028268,,,
06.178,2.409717919,,,
06.180,2.756426375,,,
06.182,2.947116027,,,
06.184,2.912445181,,,
06.186,2.825768067,,,
06.188,2.652413839,,,
06.190,2.357711651,,,
06.192,2.184357422,,,
06.194,2.167022,,,
06.196,2.323040805,,,
06.198,2.531065879,,,
06.200,2.825768067,,,
06.202,2.999122295,,,
06.204,2.999122295,,,
06.206,2.895109758,,,
06.208,2.72175553,,,
06.210,2.409717919,,,
06.212,2.253699114,,,
06.214,2.253699114,,,
06.216,2.409717919,,,
06.218,2.60040757,,,
06.220,2.947116027,,,
06.222,3.103134832,,,
06.224,3.085799409,,,
06.226,2.999122295,,,
06.228,2.84310349,,,
06.230,2.548401302,,,
06.232,2.409717919,,,
06.234,2.427053342,,,
06.236,2.565736724,,,
06.238,2.773761798,,,
06.240,3.120470255,,,
06.242,3.27648906,,,
06.244,3.328495329,,,
06.246,3.189811946,,,
06.248,3.016457718,,,
06.250,2.72175553,,,
06.252,2.617742993,,,
06.254,2.617742993,,,
06.256,2.808432644,,,
06.258,3.033793141,,,
06.260,3.345830751,,,
06.262,3.484514134,,,
06.264,3.484514134,,,
06.266,3.345830751,,,
06.268,3.189811946,,,
06.270,2.912445181,,,
06.272,2.791097221,,,
06.274,2.808432644,,,
06.276,2.947116027,,,
06.278,3.207147369,,,
06.280,3.51918498,,,
06.282,3.605862094,,,
06.284,3.605862094,,,
06.286,3.432507866,,,
06.288,3.241818214,,,
06.290,2.929780604,,,
06.292,2.84310349,,,
06.294,2.84310349,,,
06.296,2.999122295,,,
06.298,3.189811946,,,
06.300,3.484514134,,,
06.302,3.553855825,,,
06.304,3.536520402,,,
06.306,3.293824483,,,
06.308,3.068463986,,,
06.310,2.791097221,,,
06.312,2.635078416,,,
06.314,2.617742993,,,
06.316,2.739090953,,,
06.318,2.929780604,,,
06.320,3.207147369,,,
06.322,3.241818214,,,
06.324,3.189811946,,,
06.326,2.947116027,,,
06.328,2.669749261,,,
06.330,2.392382496,,,
06.332,2.253699114,,,
06.334,2.288369959,,,
06.336,2.444388765,,,
06.338,2.652413839,,,
06.340,2.860438912,,,
06.342,2.929780604,,,
06.344,2.895109758,,,
06.346,2.652413839,,,
06.348,2.409717919,,,
06.350,2.132351154,,,
06.352,2.04567404,,,
06.354,2.063009463,,,
06.356,2.253699114,,,
06.358,2.461724188,,,
06.360,2.687084684,,,
06.362,2.773761798,,,
06.364,2.704420107,,,
06.366,2.47905961,,,
06.368,2.253699114,,,
06.370,2.028338617,,,
06.372,1.941661503,,,
06.374,1.976332349,,,
06.376,2.201692845,,,
06.378,2.427053342,,,
06.380,2.652413839,,,
06.382,2.687084684,,,
06.384,2.635078416,,,
06.386,2.461724188,,,
06.388,2.219028268,,,
06.390,1.993667771,,,
06.392,1.92432608,,,
06.394,1.976332349,,,
06.396,2.167022,,,
06.398,2.461724188,,,
06.400,2.635078416,,,
06.402,2.704420107,,,
06.404,2.635078416,,,
06.406,2.47905961,,,
06.408,2.184357422,,,
06.410,1.993667771,,,
06.412,1.906990657,,,
06.414,1.976332349,,,
06.416,2.184357422,,,
06.418,2.444388765,,,
06.420,2.669749261,,,
06.422,2.687084684,,,
06.424,2.635078416,,,
06.426,2.392382496,,,
06.428,2.132351154,,,
06.430,1.941661503,,,
06.432,1.889655234,,,
06.434,1.993667771,,,
06.436,2.149686577,,,
06.438,2.496395033,,,
06.440,2.652413839,,,
06.442,2.72175553,,,
06.444,2.652413839,,,
06.446,2.444388765,,,
06.448,2.132351154,,,
06.450,1.993667771,,,
06.452,1.941661503,,,
06.454,2.04567404,,,
06.456,2.271034536,,,
06.458,2.548401302,,,
06.460,2.704420107,,,
06.462,2.756426375,,,
06.464,2.617742993,,,
06.466,2.461724188,,,
06.468,2.167022,,,
06.470,1.958996926,,,
06.472,1.92432608,,,
06.474,2.063009463,,,
06.476,2.253699114,,,
06.478,2.60040757,,,
06.480,2.756426375,,,
06.482,2.808432644,,,
06.484,2.687084684,,,
06.486,2.461724188,,,
06.488,2.184357422,,,
06.490,2.011003194,,,
06.492,1.958996926,,,
06.494,2.097680308,,,
06.496,2.288369959,,,
06.498,2.617742993,,,
06.500,2.773761798,,,
06.502,2.773761798,,,
06.504,2.669749261,,,
06.506,2.444388765,,,
06.508,2.149686577,,,
06.510,2.028338617,,,
06.512,1.958996926,,,
06.514,2.115015731,,,
06.516,2.288369959,,,
06.518,2.617742993,,,
06.520,2.739090953,,,
06.522,2.773761798,,,
06.524,2.617742993,,,
06.526,2.461724188,,,
06.528,2.115015731,,,
06.530,1.976332349,,,
06.532,1.958996926,,,
06.534,2.097680308,,,
06.536,2.323040805,,,
06.538,2.617742993,,,
06.540,2.72175553,,,
06.542,2.791097221,,,
06.544,2.617742993,,,
06.546,2.409717919,,,
06.548,2.080344885,,,
06.550,1.958996926,,,
06.552,1.941661503,,,
06.554,2.132351154,,,
06.556,2.340376228,,,
06.558,2.635078416,,,
06.560,2.756426375,,,
06.562,2.739090953,,,
06.564,2.583072147,,,
06.566,2.392382496,,,
06.568,2.063009463,,,
06.570,1.976332349,,,
06.572,1.976332349,,,
06.574,2.132351154,,,
06.576,2.340376228,,,
06.578,2.635078416,,,
06.580,2.739090953,,,
06.582,2.739090953,,,
06.584,2.548401302,,,
06.586,2.375047073,,,
06.588,2.063009463,,,
06.590,1.958996926,,,
06.592,1.941661503,,,
06.594,2.167022,,,
06.596,2.375047073,,,
06.598,2.617742993,,,
06.600,2.756426375,,,
06.602,2.72175553,,,
06.604,2.531065879,,,
06.606,2.357711651,,,
06.608,2.04567404,,,
06.610,1.941661503,,,
06.612,1.976332349,,,
06.614,2.149686577,,,
06.616,2.392382496,,,
06.618,2.652413839,,,
06.620,2.72175553,,,
06.622,2.72175553,,,
06.624,2.531065879,,,
06.626,2.305705382,,,
06.628,2.028338617,,,
06.630,1.958996926,,,
06.632,1.993667771,,,
06.634,2.184357422,,,
06.636,2.392382496,,,
06.638,2.687084684,,,
06.640,2.756426375,,,
06.642,2.739090953,,,
06.644,2.513730456,,,
06.646,2.288369959,,,
06.648,2.028338617,,,
06.650,1.976332349,,,
06.652,1.993667771,,,
06.654,2.184357422,,,
06.656,2.444388765,,,
06.658,2.687084684,,,
06.660,2.739090953,,,
06.662,2.72175553,,,
06.664,2.513730456,,,
06.666,2.271034536,,,
06.668,2.028338617,,,
06.670,1.958996926,,,
06.672,2.011003194,,,
06.674,2.184357422,,,
06.676,2.47905961,,,
06.678,2.687084684,,,
06.680,2.756426375,,,
06.682,2.669749261,,,
06.684,2.513730456,,,
06.686,2.201692845,,,
06.688,2.04567404,,,
06.690,1.941661503,,,
06.692,2.04567404,,,
06.694,2.236363691,,,
06.696,2.531065879,,,
06.698,2.704420107,,,
06.700,2.756426375,,,
06.702,2.704420107,,,
06.704,2.461724188,,,
06.706,2.219028268,,,
06.708,2.028338617,,,
06.710,1.976332349,,,
06.712,2.04567404,,,
06.714,2.253699114,,,
06.716,2.565736724,,,
06.718,2.704420107,,,
06.720,2.756426375,,,
06.722,2.652413839,,,
06.724,2.47905961,,,
06.726,2.184357422,,,
06.728,2.04567404,,,
06.730,1.941661503,,,
06.732,2.04567404,,,
06.734,2.236363691,,,
06.736,2.565736724,,,
06.738,2.72175553,,,
06.740,2.756426375,,,
06.742,2.669749261,,,
06.744,2.461724188,,,
06.746,2.201692845,,,
06.748,2.011003194,,,
06.750,1.976332349,,,
06.752,2.097680308,,,
06.754,2.271034536,,,
06.756,2.565736724,,,
06.758,2.739090953,,,
06.760,2.773761798,,,
06.762,2.652413839,,,
06.764,2.444388765,,,
06.766,2.184357422,,,
06.768,1.993667771,,,
06.770,1.976332349,,,
06.772,2.097680308,,,
06.774,2.305705382,,,
06.776,2.60040757,,,
06.778,2.756426375,,,
06.780,2.808432644,,,
06.782,2.669749261,,,
06.784,2.47905961,,,
06.786,2.149686577,,,
06.788,2.011003194,,,
06.790,2.011003194,,,
06.792,2.115015731,,,
06.794,2.323040805,,,
06.796,2.669749261,,,
06.798,2.825768067,,,
06.800,2.84310349,,,
06.802,2.704420107,,,
06.804,2.531065879,,,
06.806,2.253699114,,,
06.808,2.080344885,,,
06.810,2.063009463,,,
06.812,2.236363691,,,
06.814,2.375047073,,,
06.816,2.704420107,,,
06.818,2.84310349,,,
06.820,2.895109758,,,
06.822,2.756426375,,,
06.824,2.565736724,,,
06.826,2.271034536,,,
06.828,2.115015731,,,
06.830,2.115015731,,,
06.832,2.288369959,,,
06.834,2.461724188,,,
06.836,2.773761798,,,
06.838,2.877774335,,,
06.840,2.877774335,,,
06.842,2.687084684,,,
06.844,2.47905961,,,
06.846,2.167022,,,
06.848,2.011003194,,,
06.850,1.993667771,,,
06.852,2.201692845,,,
06.854,2.357711651,,,
06.856,2.652413839,,,
06.858,2.756426375,,,
06.860,2.756426375,,,
06.862,2.583072147,,,
06.864,2.375047073,,,
06.866,2.080344885,,,
06.868,1.976332349,,,
06.870,1.92432608,,,
06.872,2.115015731,,,
06.874,2.323040805,,,
06.876,2.652413839,,,
06.878,2.739090953,,,
06.880,2.704420107,,,
06.882,2.548401302,,,
06.884,2.323040805,,,
06.886,2.04567404,,,
06.888,1.906990657,,,
06.890,1.906990657,,,
06.892,2.115015731,,,
06.894,2.340376228,,,
06.896,2.635078416,,,
06.898,2.72175553,,,
06.900,2.704420107,,,
06.902,2.496395033,,,
06.904,2.305705382,,,
06.906,2.063009463,,,
06.908,1.92432608,,,
06.910,1.958996926,,,
06.912,2.149686577,,,
06.914,2.375047073,,,
06.916,2.60040757,,,
06.918,2.635078416,,,
06.920,2.583072147,,,
06.922,2.375047073,,,
06.924,2.132351154,,,
06.926,1.872319812,,,
06.928,1.750971852,,,
06.930,1.854984389,,,
06.932,2.288369959,,,
06.934,2.687084684,,,
06.936,3.207147369,,,
06.938,3.536520402,,,
06.940,3.796551745,,,
06.942,3.900564282,,,
06.944,4.021912241,,,
06.946,4.039247664,,,
06.948,4.004576819,,,
06.950,3.969905973,,,
06.952,3.900564282,,,
06.954,3.709874631,,,
06.956,3.779216322,,,
06.958,3.761880899,,,
06.960,3.432507866,,,
06.962,2.84310349,,,
06.964,2.184357422,,,
06.966,1.490940509,,,
06.968,1.300250858,,,
06.970,1.404263395,,,
06.972,1.612288469,,,
06.974,1.906990657,,,
06.976,2.167022,,,
06.978,2.236363691,,,
06.980,2.201692845,,,
06.982,2.080344885,,,
06.984,1.889655234,,,
06.986,1.768307275,,,
06.988,1.80297812,,,
06.990,1.889655234,,,
06.992,2.149686577,,,
06.994,2.47905961,,,
06.996,2.687084684,,,
06.998,2.773761798,,,
07.000,2.704420107,,,
07.002,2.513730456,,,
07.004,2.288369959,,,
07.006,2.080344885,,,
07.008,2.04567404,,,
07.010,2.097680308,,,
07.012,2.323040805,,,
07.014,2.583072147,,,
07.016,2.791097221,,,
07.018,2.84310349,,,
07.020,2.756426375,,,
07.022,2.583072147,,,
07.024,2.305705382,,,
07.026,2.097680308,,,
07.028,2.011003194,,,
07.030,2.132351154,,,
07.032,2.323040805,,,
07.034,2.669749261,,,
07.036,2.825768067,,,
07.038,2.84310349,,,
07.040,2.791097221,,,
07.042,2.60040757,,,
07.044,2.305705382,,,
07.046,2.115015731,,,
07.048,2.097680308,,,
07.050,2.236363691,,,
07.052,2.392382496,,,
07.054,2.704420107,,,
07.056,2.860438912,,,
07.058,2.877774335,,,
07.060,2.808432644,,,
07.062,2.617742993,,,
07.064,2.323040805,,,
07.066,2.184357422,,,
07.068,2.115015731,,,
07.070,2.271034536,,,
07.072,2.461724188,,,
07.074,2.756426375,,,
07.076,2.912445181,,,
07.078,2.981786872,,,
07.080,2.825768067,,,
07.082,2.687084684,,,
07.084,2.375047073,,,
07.086,2.219028268,,,
07.088,2.236363691,,,
07.090,2.340376228,,,
07.092,2.531065879,,,
07.094,2.84310349,,,
07.096,2.981786872,,,
07.098,2.999122295,,,
07.100,2.912445181,,,
07.102,2.704420107,,,
07.104,2.375047073,,,
07.106,2.253699114,,,
07.108,2.236363691,,,
07.110,2.392382496,,,
07.112,2.60040757,,,
07.114,2.929780604,,,
07.116,3.085799409,,,
07.118,3.137805678,,,
07.120,2.999122295,,,
07.122,2.825768067,,,
07.124,2.47905961,,,
07.126,2.357711651,,,
07.128,2.375047073,,,
07.130,2.548401302,,,
07.132,2.756426375,,,
07.134,3.085799409,,,
07.136,3.207147369,,,
07.138,3.241818214,,,
07.140,3.103134832,,,
07.142,2.964451449,,,
07.144,2.652413839,,,
07.146,2.583072147,,,
07.148,2.583072147,,,
07.150,2.808432644,,,
07.152,2.999122295,,,
07.154,3.293824483,,,
07.156,3.432507866,,,
07.158,3.432507866,,,
07.160,3.27648906,,,
07.162,3.137805678,,,
07.164,2.877774335,,,
07.166,2.756426375,,,
07.168,2.825768067,,,
07.170,2.981786872,,,
07.172,3.224482792,,,
07.174,3.51918498,,,
07.176,3.588526671,,,
07.178,3.640532939,,,
07.180,3.484514134,,,
07.182,3.241818214,,,
07.184,2.981786872,,,
07.186,2.877774335,,,
07.188,2.912445181,,,
07.190,3.085799409,,,
07.192,3.293824483,,,
07.194,3.605862094,,,
07.196,3.675203785,,,
07.198,3.640532939,,,
07.200,3.467178711,,,
07.202,3.241818214,,,
07.204,2.964451449,,,
07.206,2.860438912,,,
07.208,2.877774335,,,
07.210,3.068463986,,,
07.212,3.27648906,,,
07.214,3.501849557,,,
07.216,3.553855825,,,
07.218,3.484514134,,,
07.220,3.259153637,,,
07.222,2.981786872,,,
07.224,2.704420107,,,
07.226,2.565736724,,,
07.228,2.565736724,,,
07.230,2.773761798,,,
07.232,2.947116027,,,
07.234,3.120470255,,,
07.236,3.137805678,,,
07.238,3.085799409,,,
07.240,2.825768067,,,
07.242,2.60040757,,,
07.244,2.305705382,,,
07.246,2.236363691,,,
07.248,2.271034536,,,
07.250,2.444388765,,,
07.252,2.687084684,,,
07.254,2.860438912,,,
07.256,2.929780604,,,
07.258,2.877774335,,,
07.260,2.635078416,,,
07.262,2.375047073,,,
07.264,2.132351154,,,
07.266,2.04567404,,,
07.268,2.115015731,,,
07.270,2.323040805,,,
07.272,2.565736724,,,
07.274,2.791097221,,,
07.276,2.84310349,,,
07.278,2.739090953,,,
07.280,2.548401302,,,
07.282,2.288369959,,,
07.284,2.097680308,,,
07.286,1.976332349,,,
07.288,2.063009463,,,
07.290,2.271034536,,,
07.292,2.531065879,,,
07.294,2.687084684,,,
07.296,2.791097221,,,
07.298,2.687084684,,,
07.300,2.47905961,,,
07.302,2.236363691,,,
07.304,2.04567404,,,
07.306,1.976332349,,,
07.308,2.063009463,,,
07.310,2.271034536,,,
07.312,2.583072147,,,
07.314,2.756426375,,,
07.316,2.773761798,,,
07.318,2.704420107,,,
07.320,2.496395033,,,
07.322,2.201692845,,,
07.324,2.04567404,,,
07.326,2.011003194,,,
07.328,2.115015731,,,
07.330,2.288369959,,,
07.332,2.60040757,,,
07.334,2.739090953,,,
07.336,2.756426375,,,
07.338,2.669749261,,,
07.340,2.513730456,,,
07.342,2.219028268,,,
07.344,1.993667771,,,
07.346,1.993667771,,,
07.348,2.115015731,,,
07.350,2.305705382,,,
07.352,2.60040757,,,
07.354,2.773761798,,,
07.356,2.808432644,,,
07.358,2.704420107,,,
07.360,2.531065879,,,
07.362,2.201692845,,,
07.364,2.04567404,,,
07.366,1.993667771,,,
07.368,2.184357422,,,
07.370,2.375047073,,,
07.372,2.652413839,,,
07.374,2.808432644,,,
07.376,2.825768067,,,
07.378,2.72175553,,,
07.380,2.565736724,,,
07.382,2.219028268,,,
07.384,2.097680308,,,
07.386,2.063009463,,,
07.388,2.184357422,,,
07.390,2.375047073,,,
07.392,2.669749261,,,
07.394,2.84310349,,,
07.396,2.84310349,,,
07.398,2.72175553,,,
07.400,2.548401302,,,
07.402,2.219028268,,,
07.404,2.097680308,,,
07.406,2.063009463,,,
07.408,2.219028268,,,
07.410,2.392382496,,,
07.412,2.756426375,,,
07.414,2.877774335,,,
07.416,2.860438912,,,
07.418,2.704420107,,,
07.420,2.513730456,,,
07.422,2.219028268,,,
07.424,2.080344885,,,
07.426,2.028338617,,,
07.428,2.201692845,,,
07.430,2.409717919,,,
07.432,2.739090953,,,
07.434,2.860438912,,,
07.436,2.825768067,,,
07.438,2.72175553,,,
07.440,2.513730456,,,
07.442,2.201692845,,,
07.444,2.063009463,,,
07.446,2.080344885,,,
07.448,2.236363691,,,
07.450,2.461724188,,,
07.452,2.739090953,,,
07.454,2.877774335,,,
07.456,2.791097221,,,
07.458,2.669749261,,,
07.460,2.444388765,,,
07.462,2.132351154,,,
07.464,2.028338617,,,
07.466,2.063009463,,,
07.468,2.236363691,,,
07.470,2.47905961,,,
07.472,2.72175553,,,
07.474,2.825768067,,,
07.476,2.84310349,,,
07.478,2.635078416,,,
07.480,2.444388765,,,
07.482,2.115015731,,,
07.484,2.028338617,,,
07.486,2.04567404,,,
07.488,2.201692845,,,
07.490,2.461724188,,,
07.492,2.704420107,,,
07.494,2.808432644,,,
07.496,2.773761798,,,
07.498,2.583072147,,,
07.500,2.375047073,,,
07.502,2.080344885,,,
07.504,1.941661503,,,
07.506,2.011003194,,,
07.508,2.236363691,,,
07.510,2.496395033,,,
07.512,2.72175553,,,
07.514,2.808432644,,,
07.516,2.756426375,,,
07.518,2.583072147,,,
07.520,2.357711651,,,
07.522,2.115015731,,,
07.524,2.04567404,,,
07.526,2.063009463,,,
07.528,2.253699114,,,
07.530,2.47905961,,,
07.532,2.72175553,,,
07.534,2.791097221,,,
07.536,2.773761798,,,
07.538,2.565736724,,,
07.540,2.323040805,,,
07.542,2.097680308,,,
07.544,1.993667771,,,
07.546,2.04567404,,,
07.548,2.288369959,,,
07.550,2.513730456,,,
07.552,2.72175553,,,
07.554,2.808432644,,,
07.556,2.739090953,,,
07.558,2.548401302,,,
07.560,2.271034536,,,
07.562,2.04567404,,,
07.564,1.993667771,,,
07.566,2.080344885,,,
07.568,2.271034536,,,
07.570,2.548401302,,,
07.572,2.72175553,,,
07.574,2.791097221,,,
07.576,2.72175553,,,
07.578,2.513730456,,,
07.580,2.253699114,,,
07.582,2.04567404,,,
07.584,1.993667771,,,
07.586,2.097680308,,,
07.588,2.305705382,,,
07.590,2.548401302,,,
07.592,2.756426375,,,
07.594,2.808432644,,,
07.596,2.72175553,,,
07.598,2.531065879,,,
07.600,2.253699114,,,
07.602,2.080344885,,,
07.604,2.011003194,,,
07.606,2.115015731,,,
07.608,2.323040805,,,
07.610,2.617742993,,,
07.612,2.773761798,,,
07.614,2.825768067,,,
07.616,2.739090953,,,
07.618,2.565736724,,,
07.620,2.253699114,,,
07.622,2.04567404,,,
07.624,2.011003194,,,
07.626,2.115015731,,,
07.628,2.288369959,,,
07.630,2.652413839,,,
07.632,2.773761798,,,
07.634,2.825768067,,,
07.636,2.72175553,,,
07.638,2.496395033,,,
07.640,2.201692845,,,
07.642,2.063009463,,,
07.644,2.028338617,,,
07.646,2.149686577,,,
07.648,2.357711651,,,
07.650,2.652413839,,,
07.652,2.808432644,,,
07.654,2.825768067,,,
07.656,2.72175553,,,
07.658,2.531065879,,,
07.660,2.201692845,,,
07.662,2.063009463,,,
07.664,2.011003194,,,
07.666,2.149686577,,,
07.668,2.340376228,,,
07.670,2.669749261,,,
07.672,2.825768067,,,
07.674,2.877774335,,,
07.676,2.739090953,,,
07.678,2.548401302,,,
07.680,2.253699114,,,
07.682,2.115015731,,,
07.684,2.097680308,,,
07.686,2.253699114,,,
07.688,2.444388765,,,
07.690,2.773761798,,,
07.692,2.929780604,,,
07.694,2.912445181,,,
07.696,2.756426375,,,
07.698,2.617742993,,,
07.700,2.271034536,,,
07.702,2.149686577,,,
07.704,2.097680308,,,
07.706,2.271034536,,,
07.708,2.513730456,,,
07.710,2.791097221,,,
07.712,2.895109758,,,
07.714,2.929780604,,,
07.716,2.773761798,,,
07.718,2.60040757,,,
07.720,2.305705382,,,
07.722,2.184357422,,,
07.724,2.167022,,,
07.726,2.305705382,,,
07.728,2.47905961,,,
07.730,2.756426375,,,
07.732,2.860438912,,,
07.734,2.877774335,,,
07.736,2.669749261,,,
07.738,2.496395033,,,
07.740,2.184357422,,,
07.742,2.04567404,,,
07.744,2.04567404,,,
07.746,2.219028268,,,
07.748,2.392382496,,,
07.750,2.687084684,,,
07.752,2.791097221,,,
07.754,2.791097221,,,
07.756,2.635078416,,,
07.758,2.409717919,,,
07.760,2.115015731,,,
07.762,2.011003194,,,
07.764,2.011003194,,,
07.766,2.201692845,,,
07.768,2.409717919,,,
07.770,2.687084684,,,
07.772,2.808432644,,,
07.774,2.791097221,,,
07.776,2.60040757,,,
07.778,2.392382496,,,
07.780,2.097680308,,,
07.782,2.011003194,,,
07.784,2.028338617,,,
07.786,2.236363691,,,
07.788,2.444388765,,,
07.790,2.739090953,,,
07.792,2.825768067,,,
07.794,2.791097221,,,
07.796,2.583072147,,,
07.798,2.340376228,,,
07.800,2.063009463,,,
07.802,1.976332349,,,
07.804,1.976332349,,,
07.806,2.167022,,,
07.808,2.357711651,,,
07.810,2.60040757,,,
07.812,2.652413839,,,
07.814,2.617742993,,,
07.816,2.375047073,,,
07.818,2.201692845,,,
07.820,2.115015731,,,
07.822,2.236363691,,,
07.824,2.60040757,,,
07.826,3.051128563,,,
07.828,3.553855825,,,
07.830,4.07391851,,,
07.832,4.472633235,,,
07.834,4.715329154,,,
07.836,4.559310349,,,
07.838,4.19526647,,,
07.840,3.675203785,,,
07.842,3.189811946,,,
07.844,3.033793141,,,
07.846,3.172476523,,,
07.848,3.189811946,,,
07.850,3.051128563,,,
07.852,2.704420107,,,
07.854,2.149686577,,,
07.856,1.768307275,,,
07.858,1.594953046,,,
07.860,1.438934241,,,
07.862,1.404263395,,,
07.864,1.508275932,,,
07.866,1.681630161,,,
07.868,1.941661503,,,
07.870,2.184357422,,,
07.872,2.392382496,,,
07.874,2.392382496,,,
07.876,2.288369959,,,
07.878,2.097680308,,,
07.880,1.958996926,,,
07.882,1.92432608,,,
07.884,2.063009463,,,
07.886,2.288369959,,,
07.888,2.60040757,,,
07.890,2.773761798,,,
07.892,2.825768067,,,
07.894,2.756426375,,,
07.896,2.583072147,,,
07.898,2.323040805,,,
07.900,2.132351154,,,
07.902,2.080344885,,,
07.904,2.219028268,,,
07.906,2.427053342,,,
07.908,2.704420107,,,
07.910,2.895109758,,,
07.912,2.947116027,,,
07.914,2.860438912,,,
07.916,2.635078416,,,
07.918,2.375047073,,,
07.920,2.184357422,,,
07.922,2.149686577,,,
07.924,2.219028268,,,
07.926,2.427053342,,,
07.928,2.791097221,,,
07.930,2.912445181,,,
07.932,2.947116027,,,
07.934,2.84310349,,,
07.936,2.687084684,,,
07.938,2.375047073,,,
07.940,2.201692845,,,
07.942,2.201692845,,,
07.944,2.305705382,,,
07.946,2.47905961,,,
07.948,2.791097221,,,
07.950,2.947116027,,,
07.952,2.981786872,,,
07.954,2.860438912,,,
07.956,2.669749261,,,
07.958,2.357711651,,,
07.960,2.236363691,,,
07.962,2.219028268,,,
07.964,2.392382496,,,
07.966,2.565736724,,,
07.968,2.877774335,,,
07.970,3.033793141,,,
07.972,3.051128563,,,
07.974,2.947116027,,,
07.976,2.773761798,,,
07.978,2.461724188,,,
07.980,2.323040805,,,
07.982,2.323040805,,,
07.984,2.461724188,,,
07.986,2.635078416,,,
07.988,2.964451449,,,
07.990,3.085799409,,,
07.992,3.120470255,,,
07.994,3.016457718,,,
07.996,2.825768067,,,
07.998,2.513730456,,,
08.000,2.392382496,,,
08.002,2.409717919,,,
08.004,2.565736724,,,
08.006,2.773761798,,,
08.008,3.068463986,,,
08.010,3.207147369,,,
08.012,3.241818214,,,
08.014,3.085799409,,,
08.016,2.895109758,,,
08.018,2.617742993,,,
08.020,2.47905961,,,
08.022,2.513730456,,,
08.024,2.669749261,,,
08.026,2.877774335,,,
08.028,3.207147369,,,
08.030,3.328495329,,,
08.032,3.363166174,,,
08.034,3.207147369,,,
08.036,3.051128563,,,
08.038,2.773761798,,,
08.040,2.652413839,,,
08.042,2.669749261,,,
08.044,2.895109758,,,
08.046,3.120470255,,,
08.048,3.415172443,,,
08.050,3.536520402,,,
08.052,3.588526671,,,
08.054,3.380501597,,,
08.056,3.224482792,,,
08.058,2.999122295,,,
08.060,2.895109758,,,
08.062,2.947116027,,,
08.064,3.137805678,,,
08.066,3.328495329,,,
08.068,3.640532939,,,
08.070,3.727210054,,,
08.072,3.727210054,,,
08.074,3.571191248,,,
08.076,3.328495329,,,
08.078,3.085799409,,,
08.080,2.964451449,,,
08.082,2.999122295,,,
08.084,3.172476523,,,
08.086,3.39783702,,,
08.088,3.640532939,,,
08.090,3.744545476,,,
08.092,3.675203785,,,
08.094,3.501849557,,,
08.096,3.27648906,,,
08.098,2.964451449,,,
08.100,2.860438912,,,
08.102,2.860438912,,,
08.104,3.016457718,,,
08.106,3.207147369,,,
08.108,3.432507866,,,
08.110,3.467178711,,,
08.112,3.380501597,,,
08.114,3.137805678,,,
08.116,2.860438912,,,
08.118,2.565736724,,,
08.120,2.461724188,,,
08.122,2.47905961,,,
08.124,2.652413839,,,
08.126,2.877774335,,,
08.128,3.033793141,,,
08.130,3.051128563,,,
08.132,2.999122295,,,
08.134,2.773761798,,,
08.136,2.47905961,,,
08.138,2.271034536,,,
08.140,2.184357422,,,
08.142,2.201692845,,,
08.144,2.375047073,,,
08.146,2.60040757,,,
08.148,2.808432644,,,
08.150,2.84310349,,,
08.152,2.756426375,,,
08.154,2.548401302,,,
08.156,2.288369959,,,
08.158,2.063009463,,,
08.160,2.011003194,,,
08.162,2.115015731,,,
08.164,2.288369959,,,
08.166,2.548401302,,,
08.168,2.739090953,,,
08.170,2.791097221,,,
08.172,2.72175553,,,
08.174,2.531065879,,,
08.176,2.219028268,,,
08.178,2.04567404,,,
08.180,1.976332349,,,
08.182,2.04567404,,,
08.184,2.236363691,,,
08.186,2.496395033,,,
08.188,2.687084684,,,
08.190,2.739090953,,,
08.192,2.704420107,,,
08.194,2.496395033,,,
08.196,2.219028268,,,
08.198,2.011003194,,,
08.200,1.958996926,,,
08.202,2.063009463,,,
08.204,2.271034536,,,
08.206,2.531065879,,,
08.208,2.72175553,,,
08.210,2.773761798,,,
08.212,2.652413839,,,
08.214,2.496395033,,,
08.216,2.184357422,,,
08.218,2.028338617,,,
08.220,1.993667771,,,
08.222,2.097680308,,,
08.224,2.288369959,,,
08.226,2.565736724,,,
08.228,2.756426375,,,
08.230,2.791097221,,,
08.232,2.72175553,,,
08.234,2.496395033,,,
08.236,2.201692845,,,
08.238,2.063009463,,,
08.240,2.028338617,,,
08.242,2.149686577,,,
08.244,2.323040805,,,
08.246,2.652413839,,,
08.248,2.791097221,,,
08.250,2.808432644,,,
08.252,2.669749261,,,
08.254,2.531065879,,,
08.256,2.201692845,,,
08.258,2.063009463,,,
08.260,2.04567404,,,
08.262,2.201692845,,,
08.264,2.375047073,,,
08.266,2.687084684,,,
08.268,2.808432644,,,
08.270,2.84310349,,,
08.272,2.704420107,,,
08.274,2.531065879,,,
08.276,2.271034536,,,
08.278,2.097680308,,,
08.280,2.063009463,,,
08.282,2.219028268,,,
08.284,2.409717919,,,
08.286,2.704420107,,,
08.288,2.860438912,,,
08.290,2.877774335,,,
08.292,2.72175553,,,
08.294,2.583072147,,,
08.296,2.253699114,,,
08.298,2.115015731,,,
08.300,2.080344885,,,
08.302,2.219028268,,,
08.304,2.392382496,,,
08.306,2.704420107,,,
08.308,2.791097221,,,
08.310,2.791097221,,,
08.312,2.687084684,,,
08.314,2.444388765,,,
08.316,2.201692845,,,
08.318,2.063009463,,,
08.320,2.04567404,,,
08.322,2.219028268,,,
08.324,2.427053342,,,
08.326,2.739090953,,,
08.328,2.84310349,,,
08.330,2.877774335,,,
08.332,2.72175553,,,
08.334,2.461724188,,,
08.336,2.219028268,,,
08.338,2.080344885,,,
08.340,2.115015731,,,
08.342,2.271034536,,,
08.344,2.461724188,,,
08.346,2.739090953,,,
08.348,2.84310349,,,
08.350,2.860438912,,,
08.352,2.652413839,,,
08.354,2.409717919,,,
08.356,2.184357422,,,
08.358,2.028338617,,,
08.360,2.04567404,,,
08.362,2.219028268,,,
08.364,2.444388765,,,
08.366,2.687084684,,,
08.368,2.773761798,,,
08.370,2.756426375,,,
08.372,2.565736724,,,
08.374,2.375047073,,,
08.376,2.097680308,,,
08.378,1.993667771,,,
08.380,2.04567404,,,
08.382,2.236363691,,,
08.384,2.461724188,,,
08.386,2.704420107,,,
08.388,2.791097221,,,
08.390,2.756426375,,,
08.392,2.565736724,,,
08.394,2.375047073,,,
08.396,2.097680308,,,
08.398,2.028338617,,,
08.400,2.080344885,,,
08.402,2.271034536,,,
08.404,2.496395033,,,
08.406,2.739090953,,,
08.408,2.860438912,,,
08.410,2.84310349,,,
08.412,2.687084684,,,
08.414,2.392382496,,,
08.416,2.132351154,,,
08.418,1.993667771,,,
08.420,2.097680308,,,
08.422,2.305705382,,,
08.424,2.583072147,,,
08.426,2.825768067,,,
08.428,2.929780604,,,
08.430,2.84310349,,,
08.432,2.635078416,,,
08.434,2.323040805,,,
08.436,2.080344885,,,
08.438,2.04567404,,,
08.440,2.115015731,,,
08.442,2.305705382,,,
08.444,2.565736724,,,
08.446,2.72175553,,,
08.448,2.756426375,,,
08.450,2.669749261,,,
08.452,2.461724188,,,
08.454,2.184357422,,,
08.456,2.04567404,,,
08.458,2.04567404,,,
08.460,2.149686577,,,
08.462,2.340376228,,,
08.464,2.617742993,,,
08.466,2.773761798,,,
08.468,2.808432644,,,
08.470,2.756426375,,,
08.472,2.513730456,,,
08.474,2.253699114,,,
08.476,2.011003194,,,
08.478,1.976332349,,,
08.480,2.167022,,,
08.482,2.340376228,,,
08.484,2.635078416,,,
08.486,2.773761798,,,
08.488,2.825768067,,,
08.490,2.72175553,,,
08.492,2.565736724,,,
08.494,2.253699114,,,
08.496,2.097680308,,,
08.498,2.063009463,,,
08.500,2.149686577,,,
08.502,2.288369959,,,
08.504,2.565736724,,,
08.506,2.687084684,,,
08.508,2.791097221,,,
08.510,2.791097221,,,
08.512,2.565736724,,,
08.514,2.201692845,,,
08.516,1.976332349,,,
08.518,1.976332349,,,
08.520,2.04567404,,,
08.522,2.305705382,,,
08.524,2.60040757,,,
08.526,2.756426375,,,
08.528,2.825768067,,,
08.530,2.739090953,,,
08.532,2.652413839,,,
08.534,2.409717919,,,
08.536,2.201692845,,,
08.538,1.958996926,,,
08.540,2.097680308,,,
08.542,2.305705382,,,
08.544,2.635078416,,,
08.546,2.756426375,,,
08.548,2.825768067,,,
08.550,2.652413839,,,
08.552,2.461724188,,,
08.554,2.219028268,,,
08.556,2.115015731,,,
08.558,2.063009463,,,
08.560,2.323040805,,,
08.562,2.548401302,,,
08.564,2.981786872,,,
08.566,2.981786872,,,
08.568,3.033793141,,,
08.570,2.912445181,,,
08.572,2.583072147,,,
08.574,2.219028268,,,
08.576,2.080344885,,,
08.578,2.097680308,,,
08.580,2.340376228,,,
08.582,2.427053342,,,
08.584,2.704420107,,,
08.586,2.860438912,,,
08.588,2.912445181,,,
08.590,2.669749261,,,
08.592,2.392382496,,,
08.594,2.011003194,,,
08.596,1.854984389,,,
08.598,2.04567404,,,
08.600,2.427053342,,,
08.602,2.60040757,,,
08.604,2.947116027,,,
08.606,2.895109758,,,
08.608,2.756426375,,,
08.610,2.427053342,,,
08.612,2.201692845,,,
08.614,1.820313543,,,
08.616,1.906990657,,,
08.618,2.167022,,,
08.620,2.271034536,,,
08.622,2.357711651,,,
08.624,2.496395033,,,
08.626,2.669749261,,,
08.628,2.912445181,,,
08.630,2.669749261,,,
08.632,2.427053342,,,
08.634,2.167022,,,
08.636,2.028338617,,,
08.638,2.028338617,,,
08.640,2.184357422,,,
08.642,2.409717919,,,
08.644,2.739090953,,,
08.646,2.825768067,,,
08.648,2.756426375,,,
08.650,2.548401302,,,
08.652,2.288369959,,,
08.654,2.097680308,,,
08.656,2.011003194,,,
08.658,2.063009463,,,
08.660,2.149686577,,,
08.662,2.375047073,,,
08.664,2.635078416,,,
08.666,2.791097221,,,
08.668,2.652413839,,,
08.670,2.444388765,,,
08.672,2.253699114,,,
08.674,2.011003194,,,
08.676,1.958996926,,,
08.678,1.92432608,,,
08.680,2.149686577,,,
08.682,2.357711651,,,
08.684,2.617742993,,,
08.686,2.617742993,,,
08.688,2.47905961,,,
08.690,2.288369959,,,
08.692,2.011003194,,,
08.694,1.854984389,,,
08.696,1.698965583,,,
08.698,1.768307275,,,
08.700,2.149686577,,,
08.702,2.652413839,,,
08.704,3.137805678,,,
08.706,3.484514134,,,
08.708,3.692539208,,,
08.710,3.83122259,,,
08.712,3.83122259,,,
08.714,3.865893436,,,
08.716,4.004576819,,,
08.718,4.056583087,,,
08.720,4.039247664,,,
08.722,3.883228859,,,
08.724,3.83122259,,,
08.726,3.796551745,,,
08.728,3.536520402,,,
08.730,2.84310349,,,
08.732,2.288369959,,,
08.734,1.646959315,,,
08.736,1.317586281,,,
08.738,1.352257127,,,
08.740,1.542946778,,,
08.742,1.80297812,,,
08.744,2.063009463,,,
08.746,2.149686577,,,
08.748,2.201692845,,,
08.750,2.097680308,,,
08.752,1.785642697,,,
08.754,1.80297812,,,
08.756,1.733636429,,,
08.758,1.768307275,,,
08.760,2.04567404,,,
08.762,2.375047073,,,
08.764,2.687084684,,,
08.766,2.72175553,,,
08.768,2.669749261,,,
08.770,2.461724188,,,
08.772,2.149686577,,,
08.774,1.872319812,,,
08.776,1.92432608,,,
08.778,2.011003194,,,
08.780,2.184357422,,,
08.782,2.496395033,,,
08.784,2.687084684,,,
08.786,2.773761798,,,
08.788,2.791097221,,,
08.790,2.548401302,,,
08.792,2.201692845,,,
08.794,2.028338617,,,
08.796,1.976332349,,,
08.798,2.097680308,,,
08.800,2.375047073,,,
08.802,2.635078416,,,
08.804,2.72175553,,,
08.806,2.860438912,,,
08.808,2.739090953,,,
08.810,2.565736724,,,
08.812,2.167022,,,
08.814,1.976332349,,,
08.816,1.941661503,,,
08.818,2.04567404,,,
08.820,2.253699114,,,
08.822,2.617742993,,,
08.824,2.791097221,,,
08.826,2.895109758,,,
08.828,2.791097221,,,
08.830,2.617742993,,,
08.832,2.236363691,,,
08.834,2.149686577,,,
08.836,2.080344885,,,
08.838,2.236363691,,,
08.840,2.461724188,,,
08.842,2.72175553,,,
08.844,2.773761798,,,
08.846,2.84310349,,,
08.848,2.825768067,,,
08.850,2.583072147,,,
08.852,2.357711651,,,
08.854,2.201692845,,,
08.856,2.149686577,,,
08.858,2.236363691,,,
08.860,2.375047073,,,
08.862,2.756426375,,,
08.864,2.895109758,,,
08.866,2.912445181,,,
08.868,2.791097221,,,
08.870,2.652413839,,,
08.872,2.323040805,,,
08.874,2.253699114,,,
08.876,2.219028268,,,
08.878,2.444388765,,,
08.880,2.60040757,,,
08.882,2.947116027,,,
08.884,3.068463986,,,
08.886,3.033793141,,,
08.888,2.929780604,,,
08.890,2.704420107,,,
08.892,2.461724188,,,
08.894,2.323040805,,,
08.896,2.323040805,,,
08.898,2.583072147,,,
08.900,2.773761798,,,
08.902,3.068463986,,,
08.904,3.172476523,,,
08.906,3.137805678,,,
08.908,2.947116027,,,
08.910,2.825768067,,,
08.912,2.617742993,,,
08.914,2.496395033,,,
08.916,2.531065879,,,
08.918,2.704420107,,,
08.920,2.929780604,,,
08.922,3.241818214,,,
08.924,3.311159906,,,
08.926,3.328495329,,,
08.928,3.207147369,,,
08.930,3.068463986,,,
08.932,2.808432644,,,
08.934,2.669749261,,,
08.936,2.773761798,,,
08.938,2.929780604,,,
08.940,3.172476523,,,
08.942,3.484514134,,,
08.944,3.605862094,,,
08.946,3.553855825,,,
08.948,3.363166174,,,
08.950,3.189811946,,,
08.952,2.860438912,,,
08.954,2.84310349,,,
08.956,2.860438912,,,
08.958,3.085799409,,,
08.960,3.293824483,,,
08.962,3.553855825,,,
08.964,3.640532939,,,
08.966,3.605862094,,,
08.968,3.39783702,,,
08.970,3.137805678,,,
08.972,2.877774335,,,
08.974,2.825768067,,,
08.976,2.877774335,,,
08.978,2.999122295,,,
08.980,3.224482792,,,
08.982,3.467178711,,,
08.984,3.501849557,,,
08.986,3.415172443,,,
08.988,3.224482792,,,
08.990,2.929780604,,,
08.992,2.652413839,,,
08.994,2.513730456,,,
08.996,2.496395033,,,
08.998,2.669749261,,,
09.000,2.912445181,,,