Time (s),Signal (V),Peak Time (s) ,Sample #,Type
00.000,3.121587482,00.620,310,N
00.002,2.746908496,00.858,429,t
00.004,2.818962147,01.546,773,N
00.006,2.487515351,01.788,894,t
00.008,2.242532937,02.564,1282,N
00.010,2.228122207,02.790,1395,t
00.012,1.896675411,03.490,1745,N
00.014,2.300175858,03.730,1865,t
00.016,2.761319226,04.318,2159,N
00.018,3.092766022,04.538,2269,t
00.020,3.251284054,05.054,2527,N
00.022,3.02071237,05.278,2639,t
00.024,2.790140687,05.782,2891,N
00.026,2.545158272,06.028,3014,t
00.028,2.170479286,06.722,3361,N
00.030,2.242532937,06.966,3483,t
00.032,2.343408049,07.796,3898,N
00.034,2.545158272,08.034,4017,t
00.036,2.847783608,08.872,4436,N
00.038,3.035123101,09.110,4555,t
00.040,3.380980627,,,
00.042,3.251284054,,,
00.044,2.674854845,,,
00.046,2.617211924,,,
00.048,2.372229509,,,
00.050,2.242532937,,,
00.052,2.242532937,,,
00.054,2.156068556,,,
00.056,2.674854845,,,
00.058,3.049533831,,,
00.060,3.280105515,,,
00.062,3.294516245,,,
00.064,2.948658719,,,
00.066,2.473104621,,,
00.068,2.285765128,,,
00.070,2.112836365,,,
00.072,1.867853951,,,
00.074,1.997550523,,,
00.076,2.862194338,,,
00.078,2.963069449,,,
00.080,3.135998212,,,
00.082,3.222462594,,,
00.084,2.905426528,,,
00.086,2.516336812,,,
00.088,2.069604174,,,
00.090,2.055193444,,,
00.092,2.271354398,,,
00.094,2.256943667,,,
00.096,2.891015798,,,
00.098,2.862194338,,,
00.100,3.02071237,,,
00.102,2.99189091,,,
00.104,3.063944561,,,
00.106,2.602801193,,,
00.108,2.112836365,,,
00.110,2.112836365,,,
00.112,2.314586588,,,
00.114,2.444283161,,,
00.116,2.804551417,,,
00.118,3.135998212,,,
00.120,3.222462594,,,
00.122,3.063944561,,,
00.124,2.847783608,,,
00.126,2.40105097,,,
00.128,2.300175858,,,
00.130,1.853443221,,,
00.132,2.040782714,,,
00.134,2.343408049,,,
00.136,2.905426528,,,
00.138,3.251284054,,,
00.140,2.919837259,,,
00.142,2.818962147,,,
00.144,2.530747542,,,
00.146,2.069604174,,,
00.148,2.011961253,,,
00.150,1.954318332,,,
00.152,2.40105097,,,
00.154,2.357818779,,,
00.156,2.761319226,,,
00.158,3.121587482,,,
00.160,3.208051864,,,
00.162,3.049533831,,,
00.164,2.660444114,,,
00.166,2.458693891,,,
00.168,2.285765128,,,
00.170,1.853443221,,,
00.172,2.314586588,,,
00.174,2.660444114,,,
00.176,2.804551417,,,
00.178,3.035123101,,,
00.180,3.294516245,,,
00.182,2.487515351,,,
00.184,2.300175858,,,
00.186,1.997550523,,,
00.188,2.184890016,,,
00.190,2.328997319,,,
00.192,2.242532937,,,
00.194,2.458693891,,,
00.196,2.891015798,,,
00.198,3.265694785,,,
00.200,3.193641133,,,
00.202,2.97748018,,,
00.204,2.199300746,,,
00.206,2.271354398,,,
00.208,2.343408049,,,
00.210,2.084014904,,,
00.212,2.271354398,,,
00.214,2.516336812,,,
00.216,2.732497766,,,
00.218,2.934247989,,,
00.220,2.862194338,,,
00.222,2.775729956,,,
00.224,2.602801193,,,
00.226,2.285765128,,,
00.228,2.026371983,,,
00.230,2.156068556,,,
00.232,2.372229509,,,
00.234,2.660444114,,,
00.236,2.746908496,,,
00.238,2.862194338,,,
00.240,2.746908496,,,
00.242,2.775729956,,,
00.244,2.516336812,,,
00.246,2.314586588,,,
00.248,1.925496872,,,
00.250,2.069604174,,,
00.252,2.38664024,,,
00.254,2.602801193,,,
00.256,2.862194338,,,
00.258,3.380980627,,,
00.260,3.424212817,,,
00.262,2.718087035,,,
00.264,2.285765128,,,
00.266,2.156068556,,,
00.268,2.098425635,,,
00.270,1.925496872,,,
00.272,2.314586588,,,
00.274,2.775729956,,,
00.276,3.092766022,,,
00.278,2.847783608,,,
00.280,2.862194338,,,
00.282,2.790140687,,,
00.284,2.285765128,,,
00.286,2.055193444,,,
00.288,2.184890016,,,
00.290,2.228122207,,,
00.292,2.444283161,,,
00.294,2.718087035,,,
00.296,2.905426528,,,
00.298,3.222462594,,,
00.300,3.352159166,,,
00.302,2.660444114,,,
00.304,2.38664024,,,
00.306,2.271354398,,,
00.308,2.040782714,,,
00.310,1.896675411,,,
00.312,2.38664024,,,
00.314,2.646033384,,,
00.316,3.00630164,,,
00.318,3.02071237,,,
00.320,2.934247989,,,
00.322,2.458693891,,,
00.324,2.055193444,,,
00.326,1.983139793,,,
00.328,2.228122207,,,
00.330,2.127247095,,,
00.332,2.213711477,,,
00.334,2.790140687,,,
00.336,3.294516245,,,
00.338,3.035123101,,,
00.340,2.761319226,,,
00.342,2.775729956,,,
00.344,2.228122207,,,
00.346,1.752568109,,,
00.348,2.055193444,,,
00.350,1.968729062,,,
00.352,2.228122207,,,
00.354,2.862194338,,,
00.356,3.063944561,,,
00.358,3.193641133,,,
00.360,2.847783608,,,
00.362,2.718087035,,,
00.364,2.501926082,,,
00.366,2.040782714,,,
00.368,1.896675411,,,
00.370,2.213711477,,,
00.372,2.559569003,,,
00.374,2.775729956,,,
00.376,2.97748018,,,
00.378,3.063944561,,,
00.380,2.948658719,,,
00.382,2.833372877,,,
00.384,2.631622654,,,
00.386,2.38664024,,,
00.388,1.939907602,,,
00.390,1.896675411,,,
00.392,2.4154617,,,
00.394,2.631622654,,,
00.396,2.847783608,,,
00.398,2.818962147,,,
00.400,2.718087035,,,
00.402,2.516336812,,,
00.404,2.141657825,,,
00.406,1.738157379,,,
00.408,2.069604174,,,
00.410,2.300175858,,,
00.412,2.170479286,,,
00.414,2.919837259,,,
00.416,3.222462594,,,
00.418,3.208051864,,,
00.420,3.00630164,,,
00.422,2.718087035,,,
00.424,2.285765128,,,
00.426,2.098425635,,,
00.428,1.723746648,,,
00.430,2.011961253,,,
00.432,2.458693891,,,
00.434,2.862194338,,,
00.436,3.035123101,,,
00.438,2.948658719,,,
00.440,2.948658719,,,
00.442,2.790140687,,,
00.444,2.213711477,,,
00.446,2.127247095,,,
00.448,1.911086142,,,
00.450,2.141657825,,,
00.452,2.473104621,,,
00.454,3.121587482,,,
00.456,3.121587482,,,
00.458,3.092766022,,,
00.460,2.905426528,,,
00.462,2.718087035,,,
00.464,2.256943667,,,
00.466,2.300175858,,,
00.468,2.314586588,,,
00.470,2.199300746,,,
00.472,2.703676305,,,
00.474,2.804551417,,,
00.476,3.121587482,,,
00.478,3.00630164,,,
00.480,3.179230403,,,
00.482,2.746908496,,,
00.484,2.38664024,,,
00.486,2.040782714,,,
00.488,2.127247095,,,
00.490,2.573979733,,,
00.492,2.876605068,,,
00.494,3.00630164,,,
00.496,3.078355291,,,
00.498,3.179230403,,,
00.500,3.00630164,,,
00.502,2.573979733,,,
00.504,2.127247095,,,
00.506,1.882264681,,,
00.508,1.896675411,,,
00.510,2.314586588,,,
00.512,2.617211924,,,
00.514,2.703676305,,,
00.516,2.790140687,,,
00.518,2.891015798,,,
00.520,2.775729956,,,
00.522,2.573979733,,,
00.524,2.184890016,,,
00.526,2.011961253,,,
00.528,1.968729062,,,
00.530,1.997550523,,,
00.532,2.473104621,,,
00.534,2.689265575,,,
00.536,3.078355291,,,
00.538,2.746908496,,,
00.540,2.646033384,,,
00.542,2.112836365,,,
00.544,2.357818779,,,
00.546,2.38664024,,,
00.548,1.939907602,,,
00.550,2.314586588,,,
00.552,2.271354398,,,
00.554,2.818962147,,,
00.556,2.97748018,,,
00.558,3.078355291,,,
00.560,2.818962147,,,
00.562,2.184890016,,,
00.564,2.055193444,,,
00.566,1.911086142,,,
00.568,1.939907602,,,
00.570,2.026371983,,,
00.572,2.660444114,,,
00.574,2.862194338,,,
00.576,2.862194338,,,
00.578,2.718087035,,,
00.580,2.761319226,,,
00.582,2.487515351,,,
00.584,1.867853951,,,
00.586,1.954318332,,,
00.588,2.026371983,,,
00.590,2.285765128,,,
00.592,2.660444114,,,
00.594,2.963069449,,,
00.596,2.862194338,,,
00.598,2.847783608,,,
00.600,2.818962147,,,
00.602,2.660444114,,,
00.604,2.40105097,,,
00.606,2.40105097,,,
00.608,2.631622654,,,
00.610,3.035123101,,,
00.612,3.669195232,,,
00.614,4.072695678,,,
00.616,4.620303428,,,
00.618,4.634714158,,,
00.620,4.447374665,,,
00.622,3.870945455,,,
00.624,3.00630164,,,
00.626,2.674854845,,,
00.628,2.372229509,,,
00.630,2.42987243,,,
00.632,3.035123101,,,
00.634,2.501926082,,,
00.636,2.588390463,,,
00.638,2.256943667,,,
00.640,2.084014904,,,
00.642,1.464353504,,,
00.644,0.959977945,,,
00.646,1.392299853,,,
00.648,1.21937109,,,
00.650,1.7958003,,,
00.652,2.300175858,,,
00.654,2.530747542,,,
00.656,2.328997319,,,
00.658,2.40105097,,,
00.660,1.968729062,,,
00.662,2.170479286,,,
00.664,2.112836365,,,
00.666,2.040782714,,,
00.668,1.867853951,,,
00.670,2.213711477,,,
00.672,2.847783608,,,
00.674,3.00630164,,,
00.676,2.891015798,,,
00.678,2.790140687,,,
00.680,2.631622654,,,
00.682,2.069604174,,,
00.684,1.911086142,,,
00.686,1.723746648,,,
00.688,1.867853951,,,
00.690,2.458693891,,,
00.692,2.97748018,,,
00.694,2.718087035,,,
00.696,2.919837259,,,
00.698,2.732497766,,,
00.700,2.559569003,,,
00.702,2.314586588,,,
00.704,1.997550523,,,
00.706,1.7958003,,,
00.708,2.228122207,,,
00.710,2.689265575,,,
00.712,2.674854845,,,
00.714,2.833372877,,,
00.716,3.035123101,,,
00.718,2.876605068,,,
00.720,2.588390463,,,
00.722,2.184890016,,,
00.724,2.271354398,,,
00.726,2.199300746,,,
00.728,2.228122207,,,
00.730,2.242532937,,,
00.732,2.948658719,,,
00.734,3.265694785,,,
00.736,2.99189091,,,
00.738,2.876605068,,,
00.740,2.40105097,,,
00.742,2.170479286,,,
00.744,2.011961253,,,
00.746,2.156068556,,,
00.748,2.38664024,,,
00.750,2.530747542,,,
00.752,2.473104621,,,
00.754,3.049533831,,,
00.756,3.409802087,,,
00.758,2.876605068,,,
00.760,2.573979733,,,
00.762,2.530747542,,,
00.764,2.38664024,,,
00.766,2.228122207,,,
00.768,2.011961253,,,
00.770,2.674854845,,,
00.772,2.934247989,,,
00.774,3.107176752,,,
00.776,3.251284054,,,
00.778,3.092766022,,,
00.780,2.833372877,,,
00.782,2.458693891,,,
00.784,2.084014904,,,
00.786,2.199300746,,,
00.788,2.516336812,,,
00.790,2.891015798,,,
00.792,3.135998212,,,
00.794,3.308926975,,,
00.796,3.366569896,,,
00.798,3.308926975,,,
00.800,2.99189091,,,
00.802,2.372229509,,,
00.804,2.602801193,,,
00.806,2.804551417,,,
00.808,2.746908496,,,
00.810,3.02071237,,,
00.812,3.611552311,,,
00.814,3.741248883,,,
00.816,3.669195232,,,
00.818,3.453034278,,,
00.820,3.265694785,,,
00.822,3.063944561,,,
00.824,3.035123101,,,
00.826,2.905426528,,,
00.828,3.150408943,,,
00.830,3.870945455,,,
00.832,4.14474933,,,
00.834,4.245624441,,,
00.836,4.000642027,,,
00.838,3.957409836,,,
00.840,3.58273085,,,
00.842,3.395391357,,,
00.844,2.97748018,,,
00.846,3.265694785,,,
00.848,3.56832012,,,
00.850,3.914177646,,,
00.852,4.18798152,,,
00.854,4.274445902,,,
00.856,4.317678093,,,
00.858,4.14474933,,,
00.860,3.640373771,,,
00.862,3.380980627,,,
00.864,3.063944561,,,
00.866,3.481855738,,,
00.868,3.366569896,,,
00.870,3.870945455,,,
00.872,4.087106409,,,
00.874,4.087106409,,,
00.876,4.14474933,,,
00.878,4.130338599,,,
00.880,3.453034278,,,
00.882,2.775729956,,,
00.884,2.660444114,,,
00.886,2.99189091,,,
00.888,3.035123101,,,
00.890,3.337748436,,,
00.892,3.56832012,,,
00.894,3.712427422,,,
00.896,3.294516245,,,
00.898,3.510677199,,,
00.900,2.732497766,,,
00.902,2.530747542,,,
00.904,2.790140687,,,
00.906,2.4154617,,,
00.908,2.4154617,,,
00.910,2.963069449,,,
00.912,2.919837259,,,
00.914,3.193641133,,,
00.916,3.179230403,,,
00.918,2.963069449,,,
00.920,2.473104621,,,
00.922,1.983139793,,,
00.924,1.925496872,,,
00.926,1.968729062,,,
00.928,2.271354398,,,
00.930,2.559569003,,,
00.932,2.746908496,,,
00.934,3.294516245,,,
00.936,3.078355291,,,
00.938,2.99189091,,,
00.940,2.458693891,,,
00.942,2.300175858,,,
00.944,1.853443221,,,
00.946,1.983139793,,,
00.948,2.242532937,,,
00.950,2.631622654,,,
00.952,2.674854845,,,
00.954,2.876605068,,,
00.956,2.876605068,,,
00.958,2.473104621,,,
00.960,2.040782714,,,
00.962,1.997550523,,,
00.964,2.285765128,,,
00.966,2.156068556,,,
00.968,2.314586588,,,
00.970,2.732497766,,,
00.972,2.891015798,,,
00.974,2.862194338,,,
00.976,2.559569003,,,
00.978,2.689265575,,,
00.980,2.285765128,,,
00.982,1.911086142,,,
00.984,1.968729062,,,
00.986,1.911086142,,,
00.988,2.38664024,,,
00.990,2.646033384,,,
00.992,2.804551417,,,
00.994,3.049533831,,,
00.996,2.732497766,,,
00.998,2.545158272,,,
01.000,2.127247095,,,
01.002,2.170479286,,,
01.004,1.997550523,,,
01.006,1.867853951,,,
01.008,2.328997319,,,
01.010,2.948658719,,,
01.012,3.150408943,,,
01.014,3.121587482,,,
01.016,2.891015798,,,
01.018,2.545158272,,,
01.020,2.141657825,,,
01.022,1.666103727,,,
01.024,1.766978839,,,
01.026,2.026371983,,,
01.028,2.285765128,,,
01.030,2.804551417,,,
01.032,3.265694785,,,
01.034,3.208051864,,,
01.036,3.121587482,,,
01.038,2.674854845,,,
01.040,2.617211924,,,
01.042,1.997550523,,,
01.044,1.925496872,,,
01.046,2.084014904,,,
01.048,2.703676305,,,
01.050,2.746908496,,,
01.052,2.746908496,,,
01.054,2.934247989,,,
01.056,2.501926082,,,
01.058,2.573979733,,,
01.060,2.473104621,,,
01.062,2.069604174,,,
01.064,1.954318332,,,
01.066,2.026371983,,,
01.068,2.473104621,,,
01.070,2.761319226,,,
01.072,2.99189091,,,
01.074,2.876605068,,,
01.076,2.746908496,,,
01.078,2.458693891,,,
01.080,2.242532937,,,
01.082,2.098425635,,,
01.084,2.112836365,,,
01.086,2.458693891,,,
01.088,2.40105097,,,
01.090,2.4154617,,,
01.092,2.963069449,,,
01.094,3.222462594,,,
01.096,2.40105097,,,
01.098,2.545158272,,,
01.100,2.42987243,,,
01.102,1.911086142,,,
01.104,1.968729062,,,
01.106,2.228122207,,,
01.108,2.617211924,,,
01.110,2.963069449,,,
01.112,3.193641133,,,
01.114,2.97748018,,,
01.116,2.761319226,,,
01.118,2.199300746,,,
01.120,2.069604174,,,
01.122,2.084014904,,,
01.124,2.573979733,,,
01.126,2.127247095,,,
01.128,2.242532937,,,
01.130,2.775729956,,,
01.132,2.790140687,,,
01.134,2.646033384,,,
01.136,2.559569003,,,
01.138,2.271354398,,,
01.140,2.184890016,,,
01.142,1.7958003,,,
01.144,1.939907602,,,
01.146,2.271354398,,,
01.148,2.458693891,,,
01.150,2.761319226,,,
01.152,3.02071237,,,
01.154,2.948658719,,,
01.156,2.689265575,,,
01.158,2.213711477,,,
01.160,2.055193444,,,
01.162,1.82462176,,,
01.164,1.81021103,,,
01.166,2.069604174,,,
01.168,2.99189091,,,
01.170,2.703676305,,,
01.172,2.703676305,,,
01.174,2.573979733,,,
01.176,2.718087035,,,
01.178,2.573979733,,,
01.180,2.328997319,,,
01.182,1.925496872,,,
01.184,1.997550523,,,
01.186,1.882264681,,,
01.188,2.314586588,,,
01.190,2.689265575,,,
01.192,3.02071237,,,
01.194,2.559569003,,,
01.196,2.530747542,,,
01.198,2.487515351,,,
01.200,1.882264681,,,
01.202,1.680514458,,,
01.204,1.766978839,,,
01.206,2.228122207,,,
01.208,2.559569003,,,
01.210,2.559569003,,,
01.212,2.847783608,,,
01.214,2.818962147,,,
01.216,2.617211924,,,
01.218,2.069604174,,,
01.220,1.968729062,,,
01.222,2.170479286,,,
01.224,2.040782714,,,
01.226,2.141657825,,,
01.228,2.112836365,,,
01.230,2.42987243,,,
01.232,3.035123101,,,
01.234,2.732497766,,,
01.236,2.473104621,,,
01.238,2.040782714,,,
01.240,1.7958003,,,
01.242,1.738157379,,,
01.244,2.184890016,,,
01.246,2.242532937,,,
01.248,2.746908496,,,
01.250,3.02071237,,,
01.252,2.963069449,,,
01.254,2.588390463,,,
01.256,2.660444114,,,
01.258,2.328997319,,,
01.260,1.997550523,,,
01.262,1.766978839,,,
01.264,1.882264681,,,
01.266,1.83903249,,,
01.268,2.617211924,,,
01.270,2.97748018,,,
01.272,2.732497766,,,
01.274,2.357818779,,,
01.276,2.458693891,,,
01.278,2.213711477,,,
01.280,2.040782714,,,
01.282,1.723746648,,,
01.284,2.156068556,,,
01.286,2.660444114,,,
01.288,2.718087035,,,
01.290,2.818962147,,,
01.292,2.934247989,,,
01.294,2.847783608,,,
01.296,2.631622654,,,
01.298,2.242532937,,,
01.300,2.084014904,,,
01.302,2.026371983,,,
01.304,1.867853951,,,
01.306,2.055193444,,,
01.308,2.703676305,,,
01.310,2.833372877,,,
01.312,2.631622654,,,
01.314,2.559569003,,,
01.316,2.501926082,,,
01.318,2.040782714,,,
01.320,1.968729062,,,
01.322,1.896675411,,,
01.324,2.069604174,,,
01.326,2.328997319,,,
01.328,2.588390463,,,
01.330,2.97748018,,,
01.332,3.035123101,,,
01.334,2.804551417,,,
01.336,2.473104621,,,
01.338,2.199300746,,,
01.340,2.069604174,,,
01.342,1.81021103,,,
01.344,1.997550523,,,
01.346,2.213711477,,,
01.348,2.516336812,,,
01.350,2.833372877,,,
01.352,3.193641133,,,
01.354,2.862194338,,,
01.356,2.314586588,,,
01.358,1.7958003,,,
01.360,2.040782714,,,
01.362,2.300175858,,,
01.364,2.271354398,,,
01.366,2.718087035,,,
01.368,2.948658719,,,
01.370,2.559569003,,,
01.372,3.00630164,,,
01.374,2.761319226,,,
01.376,2.141657825,,,
01.378,1.968729062,,,
01.380,2.069604174,,,
01.382,2.228122207,,,
01.384,1.997550523,,,
01.386,2.314586588,,,
01.388,3.107176752,,,
01.390,3.107176752,,,
01.392,3.02071237,,,
01.394,3.193641133,,,
01.396,2.934247989,,,
01.398,2.242532937,,,
01.400,2.040782714,,,
01.402,2.026371983,,,
01.404,2.271354398,,,
01.406,2.530747542,,,
01.408,2.891015798,,,
01.410,3.222462594,,,
01.412,3.395391357,,,
01.414,2.934247989,,,
01.416,2.573979733,,,
01.418,2.242532937,,,
01.420,1.968729062,,,
01.422,2.184890016,,,
01.424,2.328997319,,,
01.426,2.545158272,,,
01.428,2.97748018,,,
01.430,3.337748436,,,
01.432,3.150408943,,,
01.434,2.530747542,,,
01.436,2.184890016,,,
01.438,2.184890016,,,
01.440,2.026371983,,,
01.442,2.084014904,,,
01.444,2.084014904,,,
01.446,2.42987243,,,
01.448,2.934247989,,,
01.450,2.703676305,,,
01.452,3.049533831,,,
01.454,2.804551417,,,
01.456,2.343408049,,,
01.458,2.011961253,,,
01.460,1.867853951,,,
01.462,1.925496872,,,
01.464,1.997550523,,,
01.466,2.458693891,,,
01.468,2.818962147,,,
01.470,2.948658719,,,
01.472,3.150408943,,,
01.474,2.646033384,,,
01.476,2.040782714,,,
01.478,1.896675411,,,
01.480,1.680514458,,,
01.482,1.81021103,,,
01.484,2.170479286,,,
01.486,2.38664024,,,
01.488,2.876605068,,,
01.490,3.107176752,,,
01.492,2.97748018,,,
01.494,2.674854845,,,
01.496,2.199300746,,,
01.498,2.127247095,,,
01.500,1.766978839,,,
01.502,1.781389569,,,
01.504,2.228122207,,,
01.506,2.631622654,,,
01.508,2.674854845,,,
01.510,2.97748018,,,
01.512,2.833372877,,,
01.514,2.487515351,,,
01.516,2.112836365,,,
01.518,2.011961253,,,
01.520,1.7958003,,,
01.522,2.055193444,,,
01.524,2.184890016,,,
01.526,2.314586588,,,
01.528,2.891015798,,,
01.530,3.164819673,,,
01.532,3.380980627,,,
01.534,3.366569896,,,
01.536,2.790140687,,,
01.538,2.919837259,,,
01.540,2.891015798,,,
01.542,3.193641133,,,
01.544,3.525087929,,,
01.546,3.928588376,,,
01.548,4.75,,,
01.550,4.706767809,,,
01.552,4.087106409,,,
01.554,3.352159166,,,
01.556,2.617211924,,,
01.558,2.271354398,,,
01.560,1.896675411,,,
01.562,1.694925188,,,
01.564,2.011961253,,,
01.566,2.184890016,,,
01.568,2.156068556,,,
01.570,2.141657825,,,
01.572,2.069604174,,,
01.574,1.709335918,,,
01.576,1.622871537,,,
01.578,1.132906708,,,
01.580,1.017620866,,,
01.582,1.493174964,,,
01.584,1.766978839,,,
01.586,2.300175858,,,
01.588,2.343408049,,,
01.590,2.631622654,,,
01.592,2.573979733,,,
01.594,2.343408049,,,
01.596,2.098425635,,,
01.598,1.81021103,,,
01.600,1.622871537,,,
01.602,2.156068556,,,
01.604,2.213711477,,,
01.606,2.703676305,,,
01.608,3.02071237,,,
01.610,3.107176752,,,
01.612,2.905426528,,,
01.614,2.487515351,,,
01.616,2.084014904,,,
01.618,1.637282267,,,
01.620,1.651692997,,,
01.622,1.694925188,,,
01.624,1.968729062,,,
01.626,2.545158272,,,
01.628,3.107176752,,,
01.630,3.539498659,,,
01.632,3.121587482,,,
01.634,2.588390463,,,
01.636,2.069604174,,,
01.638,1.781389569,,,
01.640,1.939907602,,,
01.642,2.343408049,,,
01.644,2.487515351,,,
01.646,2.818962147,,,
01.648,3.063944561,,,
01.650,3.035123101,,,
01.652,2.703676305,,,
01.654,2.746908496,,,
01.656,2.040782714,,,
01.658,1.939907602,,,
01.660,1.968729062,,,
01.662,2.026371983,,,
01.664,2.458693891,,,
01.666,2.790140687,,,
01.668,2.919837259,,,
01.670,2.97748018,,,
01.672,3.00630164,,,
01.674,2.516336812,,,
01.676,2.112836365,,,
01.678,2.141657825,,,
01.680,2.213711477,,,
01.682,2.141657825,,,
01.684,2.617211924,,,
01.686,2.790140687,,,
01.688,2.934247989,,,
01.690,3.092766022,,,
01.692,2.833372877,,,
01.694,2.602801193,,,
01.696,2.242532937,,,
01.698,1.882264681,,,
01.700,2.170479286,,,
01.702,2.559569003,,,
01.704,2.963069449,,,
01.706,2.963069449,,,
01.708,3.150408943,,,
01.710,3.00630164,,,
01.712,3.193641133,,,
01.714,2.891015798,,,
01.716,2.588390463,,,
01.718,2.372229509,,,
01.720,2.084014904,,,
01.722,2.530747542,,,
01.724,2.97748018,,,
01.726,3.265694785,,,
01.728,3.380980627,,,
01.730,3.467445008,,,
01.732,3.453034278,,,
01.734,3.135998212,,,
01.736,2.948658719,,,
01.738,2.40105097,,,
01.740,2.444283161,,,
01.742,3.121587482,,,
01.744,3.179230403,,,
01.746,3.611552311,,,
01.748,3.683605962,,,
01.750,3.813302534,,,
01.752,3.856534725,,,
01.754,3.438623548,,,
01.756,3.02071237,,,
01.758,3.121587482,,,
01.760,2.876605068,,,
01.762,3.179230403,,,
01.764,3.986231297,,,
01.766,4.015052757,,,
01.768,4.130338599,,,
01.770,3.971820567,,,
01.772,4.058284948,,,
01.774,3.726838153,,,
01.776,3.366569896,,,
01.778,3.179230403,,,
01.780,3.352159166,,,
01.782,3.467445008,,,
01.784,3.770070343,,,
01.786,4.418553204,,,
01.788,4.14474933,,,
01.790,4.73558927,,,
01.792,4.260035172,,,
01.794,3.510677199,,,
01.796,3.236873324,,,
01.798,3.222462594,,,
01.800,3.308926975,,,
01.802,3.135998212,,,
01.804,3.640373771,,,
01.806,3.957409836,,,
01.808,4.029463488,,,
01.810,3.56832012,,,
01.812,3.409802087,,,
01.814,3.164819673,,,
01.816,2.919837259,,,
01.818,2.732497766,,,
01.820,2.732497766,,,
01.822,3.150408943,,,
01.824,3.179230403,,,
01.826,3.208051864,,,
01.828,3.654784501,,,
01.830,3.323337706,,,
01.832,3.164819673,,,
01.834,2.775729956,,,
01.836,2.516336812,,,
01.838,2.4154617,,,
01.840,2.501926082,,,
01.842,2.545158272,,,
01.844,2.746908496,,,
01.846,3.049533831,,,
01.848,3.251284054,,,
01.850,2.891015798,,,
01.852,2.746908496,,,
01.854,2.746908496,,,
01.856,2.40105097,,,
01.858,2.184890016,,,
01.860,2.040782714,,,
01.862,2.242532937,,,
01.864,2.775729956,,,
01.866,3.323337706,,,
01.868,3.294516245,,,
01.870,3.092766022,,,
01.872,2.934247989,,,
01.874,2.184890016,,,
01.876,1.911086142,,,
01.878,2.011961253,,,
01.880,1.968729062,,,
01.882,2.242532937,,,
01.884,2.718087035,,,
01.886,2.876605068,,,
01.888,2.948658719,,,
01.890,2.732497766,,,
01.892,2.602801193,,,
01.894,2.4154617,,,
01.896,2.069604174,,,
01.898,1.954318332,,,
01.900,2.38664024,,,
01.902,2.184890016,,,
01.904,2.703676305,,,
01.906,2.934247989,,,
01.908,3.150408943,,,
01.910,2.963069449,,,
01.912,2.617211924,,,
01.914,2.256943667,,,
01.916,1.83903249,,,
01.918,1.925496872,,,
01.920,2.170479286,,,
01.922,2.271354398,,,
01.924,3.107176752,,,
01.926,3.193641133,,,
01.928,3.179230403,,,
01.930,3.121587482,,,
01.932,2.746908496,,,
01.934,2.487515351,,,
01.936,2.040782714,,,
01.938,2.084014904,,,
01.940,2.141657825,,,
01.942,2.631622654,,,
01.944,2.847783608,,,
01.946,3.179230403,,,
01.948,3.02071237,,,
01.950,2.718087035,,,
01.952,2.300175858,,,
01.954,2.069604174,,,
01.956,2.026371983,,,
01.958,2.4154617,,,
01.960,2.473104621,,,
01.962,2.588390463,,,
01.964,2.905426528,,,
01.966,3.236873324,,,
01.968,2.934247989,,,
01.970,2.617211924,,,
01.972,2.545158272,,,
01.974,2.213711477,,,
01.976,1.997550523,,,
01.978,2.069604174,,,
01.980,2.256943667,,,
01.982,2.559569003,,,
01.984,2.818962147,,,
01.986,3.049533831,,,
01.988,3.078355291,,,
01.990,2.963069449,,,
01.992,2.631622654,,,
01.994,2.055193444,,,
01.996,1.954318332,,,
01.998,2.026371983,,,
02.000,2.242532937,,,
02.002,2.559569003,,,
02.004,2.847783608,,,
02.006,2.97748018,,,
02.008,3.193641133,,,
02.010,3.00630164,,,
02.012,2.357818779,,,
02.014,2.141657825,,,
02.016,1.983139793,,,
02.018,1.968729062,,,
02.020,2.112836365,,,
02.022,2.559569003,,,
02.024,3.00630164,,,
02.026,3.193641133,,,
02.028,2.934247989,,,
02.030,2.99189091,,,
02.032,2.545158272,,,
02.034,1.896675411,,,
02.036,1.752568109,,,
02.038,2.372229509,,,
02.040,2.098425635,,,
02.042,2.372229509,,,
02.044,2.790140687,,,
02.046,3.337748436,,,
02.048,2.732497766,,,
02.050,2.689265575,,,
02.052,2.40105097,,,
02.054,2.040782714,,,
02.056,1.954318332,,,
02.058,2.069604174,,,
02.060,2.199300746,,,
02.062,2.588390463,,,
02.064,2.790140687,,,
02.066,3.164819673,,,
02.068,2.761319226,,,
02.070,2.530747542,,,
02.072,2.602801193,,,
02.074,2.314586588,,,
02.076,1.939907602,,,
02.078,1.954318332,,,
02.080,2.112836365,,,
02.082,2.617211924,,,
02.084,2.804551417,,,
02.086,2.905426528,,,
02.088,2.775729956,,,
02.090,2.559569003,,,
02.092,2.040782714,,,
02.094,2.343408049,,,
02.096,1.954318332,,,
02.098,2.098425635,,,
02.100,2.184890016,,,
02.102,2.775729956,,,
02.104,3.078355291,,,
02.106,2.948658719,,,
02.108,2.674854845,,,
02.110,2.631622654,,,
02.112,2.228122207,,,
02.114,2.069604174,,,
02.116,1.867853951,,,
02.118,1.853443221,,,
02.120,2.328997319,,,
02.122,2.818962147,,,
02.124,2.919837259,,,
02.126,2.97748018,,,
02.128,2.775729956,,,
02.130,2.516336812,,,
02.132,2.300175858,,,
02.134,2.156068556,,,
02.136,1.968729062,,,
02.138,2.040782714,,,
02.140,2.199300746,,,
02.142,2.487515351,,,
02.144,2.746908496,,,
02.146,2.689265575,,,
02.148,2.689265575,,,
02.150,2.934247989,,,
02.152,2.516336812,,,
02.154,1.983139793,,,
02.156,1.939907602,,,
02.158,1.82462176,,,
02.160,1.983139793,,,
02.162,2.718087035,,,
02.164,2.862194338,,,
02.166,3.092766022,,,
02.168,2.545158272,,,
02.170,2.170479286,,,
02.172,1.853443221,,,
02.174,1.968729062,,,
02.176,1.968729062,,,
02.178,2.38664024,,,
02.180,2.42987243,,,
02.182,2.790140687,,,
02.184,2.790140687,,,
02.186,2.732497766,,,
02.188,2.833372877,,,
02.190,2.775729956,,,
02.192,2.372229509,,,
02.194,1.882264681,,,
02.196,1.968729062,,,
02.198,2.184890016,,,
02.200,2.285765128,,,
02.202,2.501926082,,,
02.204,2.963069449,,,
02.206,2.948658719,,,
02.208,2.847783608,,,
02.210,2.530747542,,,
02.212,2.343408049,,,
02.214,1.954318332,,,
02.216,1.723746648,,,
02.218,1.911086142,,,
02.220,2.372229509,,,
02.222,2.689265575,,,
02.224,3.078355291,,,
02.226,3.193641133,,,
02.228,2.732497766,,,
02.230,2.559569003,,,
02.232,1.925496872,,,
02.234,1.82462176,,,
02.236,2.026371983,,,
02.238,2.112836365,,,
02.240,2.487515351,,,
02.242,2.746908496,,,
02.244,2.804551417,,,
02.246,2.833372877,,,
02.248,2.646033384,,,
02.250,2.40105097,,,
02.252,1.896675411,,,
02.254,1.925496872,,,
02.256,2.011961253,,,
02.258,1.954318332,,,
02.260,2.458693891,,,
02.262,2.818962147,,,
02.264,3.078355291,,,
02.266,2.99189091,,,
02.268,2.862194338,,,
02.270,2.588390463,,,
02.272,2.026371983,,,
02.274,1.82462176,,,
02.276,2.084014904,,,
02.278,2.141657825,,,
02.280,2.38664024,,,
02.282,2.631622654,,,
02.284,2.862194338,,,
02.286,2.99189091,,,
02.288,3.02071237,,,
02.290,2.4154617,,,
02.292,1.911086142,,,
02.294,1.781389569,,,
02.296,2.055193444,,,
02.298,2.141657825,,,
02.300,2.357818779,,,
02.302,2.588390463,,,
02.304,2.905426528,,,
02.306,3.00630164,,,
02.308,2.746908496,,,
02.310,2.444283161,,,
02.312,2.084014904,,,
02.314,2.026371983,,,
02.316,1.911086142,,,
02.318,2.285765128,,,
02.320,2.501926082,,,
02.322,3.380980627,,,
02.324,3.366569896,,,
02.326,2.718087035,,,
02.328,2.703676305,,,
02.330,2.112836365,,,
02.332,1.939907602,,,
02.334,1.651692997,,,
02.336,1.81021103,,,
02.338,2.213711477,,,
02.340,2.516336812,,,
02.342,2.718087035,,,
02.344,2.963069449,,,
02.346,2.934247989,,,
02.348,2.602801193,,,
02.350,2.213711477,,,
02.352,2.314586588,,,
02.354,2.011961253,,,
02.356,1.82462176,,,
02.358,2.228122207,,,
02.360,2.674854845,,,
02.362,2.905426528,,,
02.364,3.078355291,,,
02.366,3.035123101,,,
02.368,2.559569003,,,
02.370,2.213711477,,,
02.372,2.040782714,,,
02.374,1.83903249,,,
02.376,1.925496872,,,
02.378,1.983139793,,,
02.380,2.646033384,,,
02.382,3.02071237,,,
02.384,3.164819673,,,
02.386,2.963069449,,,
02.388,2.790140687,,,
02.390,2.473104621,,,
02.392,2.256943667,,,
02.394,2.372229509,,,
02.396,2.156068556,,,
02.398,2.271354398,,,
02.400,2.646033384,,,
02.402,2.919837259,,,
02.404,3.135998212,,,
02.406,2.948658719,,,
02.408,2.775729956,,,
02.410,2.357818779,,,
02.412,2.141657825,,,
02.414,2.156068556,,,
02.416,2.372229509,,,
02.418,2.530747542,,,
02.420,2.862194338,,,
02.422,3.078355291,,,
02.424,3.409802087,,,
02.426,3.323337706,,,
02.428,2.876605068,,,
02.430,2.170479286,,,
02.432,2.098425635,,,
02.434,1.983139793,,,
02.436,2.228122207,,,
02.438,2.501926082,,,
02.440,3.092766022,,,
02.442,3.00630164,,,
02.444,3.107176752,,,
02.446,3.280105515,,,
02.448,2.573979733,,,
02.450,2.127247095,,,
02.452,2.040782714,,,
02.454,1.723746648,,,
02.456,1.911086142,,,
02.458,2.530747542,,,
02.460,2.42987243,,,
02.462,2.689265575,,,
02.464,3.193641133,,,
02.466,3.179230403,,,
02.468,2.761319226,,,
02.470,2.098425635,,,
02.472,1.766978839,,,
02.474,1.81021103,,,
02.476,1.911086142,,,
02.478,2.285765128,,,
02.480,2.761319226,,,
02.482,3.121587482,,,
02.484,3.294516245,,,
02.486,2.963069449,,,
02.488,2.530747542,,,
02.490,1.997550523,,,
02.492,1.911086142,,,
02.494,1.968729062,,,
02.496,2.084014904,,,
02.498,2.112836365,,,
02.500,2.674854845,,,
02.502,2.891015798,,,
02.504,2.97748018,,,
02.506,2.602801193,,,
02.508,2.573979733,,,
02.510,2.256943667,,,
02.512,1.766978839,,,
02.514,1.81021103,,,
02.516,2.112836365,,,
02.518,2.228122207,,,
02.520,2.833372877,,,
02.522,3.035123101,,,
02.524,2.602801193,,,
02.526,2.559569003,,,
02.528,2.602801193,,,
02.530,2.213711477,,,
02.532,1.651692997,,,
02.534,2.184890016,,,
02.536,2.069604174,,,
02.538,2.42987243,,,
02.540,2.602801193,,,
02.542,2.804551417,,,
02.544,3.078355291,,,
02.546,3.121587482,,,
02.548,3.00630164,,,
02.550,2.790140687,,,
02.552,2.746908496,,,
02.554,2.545158272,,,
02.556,2.703676305,,,
02.558,3.308926975,,,
02.560,3.942999106,,,
02.562,4.605892698,,,
02.564,4.692357079,,,
02.566,4.389731744,,,
02.568,4.14474933,,,
02.570,3.265694785,,,
02.572,2.40105097,,,
02.574,2.343408049,,,
02.576,2.300175858,,,
02.578,2.38664024,,,
02.580,2.343408049,,,
02.582,2.602801193,,,
02.584,2.4154617,,,
02.586,2.170479286,,,
02.588,1.637282267,,,
02.590,1.392299853,,,
02.592,1.118495978,,,
02.594,1.320246201,,,
02.596,1.694925188,,,
02.598,1.781389569,,,
02.600,1.997550523,,,
02.602,2.314586588,,,
02.604,2.516336812,,,
02.606,2.473104621,,,
02.608,2.127247095,,,
02.610,1.997550523,,,
02.612,1.709335918,,,
02.614,1.983139793,,,
02.616,2.084014904,,,
02.618,2.458693891,,,
02.620,2.631622654,,,
02.622,3.063944561,,,
02.624,2.804551417,,,
02.626,2.516336812,,,
02.628,2.458693891,,,
02.630,2.271354398,,,
02.632,1.738157379,,,
02.634,2.112836365,,,
02.636,2.098425635,,,
02.638,2.444283161,,,
02.640,2.732497766,,,
02.642,2.818962147,,,
02.644,2.934247989,,,
02.646,2.761319226,,,
02.648,2.588390463,,,
02.650,2.127247095,,,
02.652,2.040782714,,,
02.654,2.055193444,,,
02.656,2.285765128,,,
02.658,2.646033384,,,
02.660,2.689265575,,,
02.662,2.891015798,,,
02.664,2.775729956,,,
02.666,2.934247989,,,
02.668,2.314586588,,,
02.670,2.314586588,,,
02.672,1.968729062,,,
02.674,2.069604174,,,
02.676,2.40105097,,,
02.678,2.934247989,,,
02.680,2.905426528,,,
02.682,3.380980627,,,
02.684,2.804551417,,,
02.686,2.458693891,,,
02.688,2.516336812,,,
02.690,2.011961253,,,
02.692,1.997550523,,,
02.694,2.285765128,,,
02.696,2.703676305,,,
02.698,2.847783608,,,
02.700,2.833372877,,,
02.702,3.107176752,,,
02.704,2.919837259,,,
02.706,3.02071237,,,
02.708,2.184890016,,,
02.710,1.911086142,,,
02.712,2.314586588,,,
02.714,2.199300746,,,
02.716,2.357818779,,,
02.718,3.135998212,,,
02.720,3.092766022,,,
02.722,3.323337706,,,
02.724,3.236873324,,,
02.726,2.905426528,,,
02.728,2.42987243,,,
02.730,1.954318332,,,
02.732,2.372229509,,,
02.734,2.314586588,,,
02.736,2.458693891,,,
02.738,3.294516245,,,
02.740,3.698016692,,,
02.742,3.308926975,,,
02.744,3.366569896,,,
02.746,3.193641133,,,
02.748,2.818962147,,,
02.750,2.545158272,,,
02.752,2.588390463,,,
02.754,2.732497766,,,
02.756,2.862194338,,,
02.758,3.669195232,,,
02.760,3.611552311,,,
02.762,3.827713264,,,
02.764,3.698016692,,,
02.766,3.424212817,,,
02.768,3.179230403,,,
02.770,2.963069449,,,
02.772,3.222462594,,,
02.774,2.97748018,,,
02.776,3.179230403,,,
02.778,3.755659613,,,
02.780,4.418553204,,,
02.782,4.231213711,,,
02.784,4.260035172,,,
02.786,4.043874218,,,
02.788,3.424212817,,,
02.790,3.510677199,,,
02.792,3.611552311,,,
02.794,3.409802087,,,
02.796,3.770070343,,,
02.798,3.957409836,,,
02.800,4.260035172,,,
02.802,4.17357079,,,
02.804,4.15916006,,,
02.806,4.029463488,,,
02.808,3.56832012,,,
02.810,3.323337706,,,
02.812,3.236873324,,,
02.814,3.58273085,,,
02.816,3.798891804,,,
02.818,4.17357079,,,
02.820,4.043874218,,,
02.822,3.914177646,,,
02.824,3.640373771,,,
02.826,3.409802087,,,
02.828,3.236873324,,,
02.830,2.919837259,,,
02.832,3.164819673,,,
02.834,2.905426528,,,
02.836,3.193641133,,,
02.838,3.741248883,,,
02.840,3.698016692,,,
02.842,3.698016692,,,
02.844,3.640373771,,,
02.846,3.135998212,,,
02.848,3.035123101,,,
02.850,2.646033384,,,
02.852,2.4154617,,,
02.854,2.646033384,,,
02.856,2.689265575,,,
02.858,2.862194338,,,
02.860,3.453034278,,,
02.862,3.265694785,,,
02.864,3.453034278,,,
02.866,2.790140687,,,
02.868,2.271354398,,,
02.870,2.170479286,,,
02.872,2.40105097,,,
02.874,2.458693891,,,
02.876,2.703676305,,,
02.878,3.251284054,,,
02.880,3.380980627,,,
02.882,2.674854845,,,
02.884,2.732497766,,,
02.886,2.818962147,,,
02.888,2.372229509,,,
02.890,2.141657825,,,
02.892,2.098425635,,,
02.894,2.084014904,,,
02.896,2.559569003,,,
02.898,3.049533831,,,
02.900,3.00630164,,,
02.902,2.876605068,,,
02.904,2.847783608,,,
02.906,2.602801193,,,
02.908,2.300175858,,,
02.910,2.170479286,,,
02.912,2.127247095,,,
02.914,2.141657825,,,
02.916,2.530747542,,,
02.918,2.847783608,,,
02.920,3.222462594,,,
02.922,3.337748436,,,
02.924,2.905426528,,,
02.926,2.516336812,,,
02.928,2.444283161,,,
02.930,2.357818779,,,
02.932,2.199300746,,,
02.934,2.242532937,,,
02.936,2.732497766,,,
02.938,2.919837259,,,
02.940,3.092766022,,,
02.942,2.934247989,,,
02.944,2.674854845,,,
02.946,2.328997319,,,
02.948,2.242532937,,,
02.950,2.084014904,,,
02.952,2.372229509,,,
02.954,2.38664024,,,
02.956,2.444283161,,,
02.958,3.02071237,,,
02.960,3.409802087,,,
02.962,3.02071237,,,
02.964,2.761319226,,,
02.966,2.573979733,,,
02.968,2.184890016,,,
02.970,1.911086142,,,
02.972,2.040782714,,,
02.974,2.38664024,,,
02.976,2.761319226,,,
02.978,3.164819673,,,
02.980,3.208051864,,,
02.982,2.833372877,,,
02.984,3.121587482,,,
02.986,2.372229509,,,
02.988,2.184890016,,,
02.990,2.084014904,,,
02.992,2.156068556,,,
02.994,2.444283161,,,
02.996,2.573979733,,,
02.998,2.919837259,,,
03.000,3.366569896,,,
03.002,3.121587482,,,
03.004,2.99189091,,,
03.006,2.487515351,,,
03.008,2.314586588,,,
03.010,2.199300746,,,
03.012,2.256943667,,,
03.014,2.473104621,,,
03.016,2.631622654,,,
03.018,2.963069449,,,
03.020,2.99189091,,,
03.022,3.035123101,,,
03.024,2.833372877,,,
03.026,2.314586588,,,
03.028,2.343408049,,,
03.030,1.896675411,,,
03.032,2.112836365,,,
03.034,2.357818779,,,
03.036,3.164819673,,,
03.038,3.236873324,,,
03.040,3.049533831,,,
03.042,2.761319226,,,
03.044,2.674854845,,,
03.046,2.40105097,,,
03.048,2.084014904,,,
03.050,2.098425635,,,
03.052,2.213711477,,,
03.054,2.444283161,,,
03.056,3.035123101,,,
03.058,3.00630164,,,
03.060,3.150408943,,,
03.062,3.092766022,,,
03.064,2.530747542,,,
03.066,1.939907602,,,
03.068,1.939907602,,,
03.070,1.968729062,,,
03.072,2.271354398,,,
03.074,2.4154617,,,
03.076,2.948658719,,,
03.078,3.121587482,,,
03.080,3.352159166,,,
03.082,2.919837259,,,
03.084,2.473104621,,,
03.086,2.228122207,,,
03.088,1.968729062,,,
03.090,1.82462176,,,
03.092,2.271354398,,,
03.094,3.092766022,,,
03.096,2.775729956,,,
03.098,2.99189091,,,
03.100,3.107176752,,,
03.102,2.99189091,,,
03.104,2.646033384,,,
03.106,2.271354398,,,
03.108,2.055193444,,,
03.110,1.968729062,,,
03.112,2.084014904,,,
03.114,2.271354398,,,
03.116,2.963069449,,,
03.118,3.135998212,,,
03.120,3.208051864,,,
03.122,2.963069449,,,
03.124,2.559569003,,,
03.126,2.372229509,,,
03.128,1.968729062,,,
03.130,2.228122207,,,
03.132,2.40105097,,,
03.134,2.300175858,,,
03.136,2.444283161,,,
03.138,3.035123101,,,
03.140,3.193641133,,,
03.142,2.934247989,,,
03.144,2.588390463,,,
03.146,2.256943667,,,
03.148,1.911086142,,,
03.150,2.084014904,,,
03.152,2.156068556,,,
03.154,2.4154617,,,
03.156,3.208051864,,,
03.158,3.236873324,,,
03.160,3.00630164,,,
03.162,2.818962147,,,
03.164,2.501926082,,,
03.166,1.896675411,,,
03.168,2.055193444,,,
03.170,2.213711477,,,
03.172,2.199300746,,,
03.174,2.588390463,,,
03.176,3.107176752,,,
03.178,3.208051864,,,
03.180,3.280105515,,,
03.182,2.963069449,,,
03.184,2.242532937,,,
03.186,1.83903249,,,
03.188,1.882264681,,,
03.190,2.069604174,,,
03.192,2.213711477,,,
03.194,2.818962147,,,
03.196,3.409802087,,,
03.198,3.208051864,,,
03.200,3.092766022,,,
03.202,2.847783608,,,
03.204,2.746908496,,,
03.206,2.098425635,,,
03.208,1.925496872,,,
03.210,1.983139793,,,
03.212,2.069604174,,,
03.214,2.833372877,,,
03.216,2.99189091,,,
03.218,2.761319226,,,
03.220,2.876605068,,,
03.222,2.919837259,,,
03.224,2.646033384,,,
03.226,2.372229509,,,
03.228,2.170479286,,,
03.230,2.040782714,,,
03.232,2.127247095,,,
03.234,2.4154617,,,
03.236,2.876605068,,,
03.238,3.323337706,,,
03.240,2.876605068,,,
03.242,2.790140687,,,
03.244,2.646033384,,,
03.246,2.38664024,,,
03.248,2.112836365,,,
03.250,2.141657825,,,
03.252,2.300175858,,,
03.254,2.804551417,,,
03.256,2.847783608,,,
03.258,2.746908496,,,
03.260,2.919837259,,,
03.262,3.222462594,,,
03.264,2.112836365,,,
03.266,2.098425635,,,
03.268,2.084014904,,,
03.270,2.112836365,,,
03.272,2.444283161,,,
03.274,2.689265575,,,
03.276,3.049533831,,,
03.278,3.135998212,,,
03.280,3.179230403,,,
03.282,2.761319226,,,
03.284,2.156068556,,,
03.286,2.184890016,,,
03.288,2.069604174,,,
03.290,2.357818779,,,
03.292,2.617211924,,,
03.294,2.674854845,,,
03.296,2.963069449,,,
03.298,3.323337706,,,
03.300,3.063944561,,,
03.302,2.646033384,,,
03.304,2.314586588,,,
03.306,2.112836365,,,
03.308,2.242532937,,,
03.310,2.228122207,,,
03.312,2.357818779,,,
03.314,2.530747542,,,
03.316,2.746908496,,,
03.318,3.078355291,,,
03.320,3.265694785,,,
03.322,3.049533831,,,
03.324,2.545158272,,,
03.326,2.084014904,,,
03.328,1.983139793,,,
03.330,2.184890016,,,
03.332,2.545158272,,,
03.334,2.948658719,,,
03.336,3.222462594,,,
03.338,3.135998212,,,
03.340,3.193641133,,,
03.342,2.948658719,,,
03.344,2.4154617,,,
03.346,2.199300746,,,
03.348,2.112836365,,,
03.350,2.573979733,,,
03.352,2.617211924,,,
03.354,2.862194338,,,
03.356,3.294516245,,,
03.358,3.683605962,,,
03.360,3.352159166,,,
03.362,2.919837259,,,
03.364,2.703676305,,,
03.366,2.199300746,,,
03.368,2.343408049,,,
03.370,2.444283161,,,
03.372,2.545158272,,,
03.374,2.963069449,,,
03.376,3.294516245,,,
03.378,3.280105515,,,
03.380,2.963069449,,,
03.382,2.891015798,,,
03.384,2.242532937,,,
03.386,1.968729062,,,
03.388,1.997550523,,,
03.390,2.271354398,,,
03.392,2.588390463,,,
03.394,2.97748018,,,
03.396,2.948658719,,,
03.398,2.847783608,,,
03.400,3.063944561,,,
03.402,2.847783608,,,
03.404,1.925496872,,,
03.406,1.911086142,,,
03.408,1.911086142,,,
03.410,2.328997319,,,
03.412,2.573979733,,,
03.414,2.703676305,,,
03.416,2.963069449,,,
03.418,2.847783608,,,
03.420,2.588390463,,,
03.422,2.876605068,,,
03.424,2.184890016,,,
03.426,2.069604174,,,
03.428,2.170479286,,,
03.430,2.300175858,,,
03.432,2.473104621,,,
03.434,2.804551417,,,
03.436,2.818962147,,,
03.438,2.97748018,,,
03.440,2.818962147,,,
03.442,2.631622654,,,
03.444,2.473104621,,,
03.446,1.997550523,,,
03.448,2.055193444,,,
03.450,2.4154617,,,
03.452,2.458693891,,,
03.454,2.818962147,,,
03.456,3.00630164,,,
03.458,3.150408943,,,
03.460,2.934247989,,,
03.462,2.674854845,,,
03.464,2.069604174,,,
03.466,2.084014904,,,
03.468,2.40105097,,,
03.470,2.040782714,,,
03.472,2.530747542,,,
03.474,2.97748018,,,
03.476,3.409802087,,,
03.478,3.59714158,,,
03.480,3.409802087,,,
03.482,3.352159166,,,
03.484,3.424212817,,,
03.486,3.395391357,,,
03.488,3.683605962,,,
03.490,3.899766915,,,
03.492,4.505017586,,,
03.494,4.432963935,,,
03.496,4.389731744,,,
03.498,3.899766915,,,
03.500,2.891015798,,,
03.502,2.516336812,,,
03.504,2.055193444,,,
03.506,1.637282267,,,
03.508,1.277014011,,,
03.510,1.594050076,,,
03.512,2.184890016,,,
03.514,2.501926082,,,
03.516,2.602801193,,,
03.518,2.141657825,,,
03.520,2.516336812,,,
03.522,1.7958003,,,
03.524,1.666103727,,,
03.526,1.449942774,,,
03.528,1.392299853,,,
03.530,1.968729062,,,
03.532,2.444283161,,,
03.534,2.602801193,,,
03.536,3.035123101,,,
03.538,2.703676305,,,
03.540,2.501926082,,,
03.542,2.530747542,,,
03.544,2.069604174,,,
03.546,1.939907602,,,
03.548,2.026371983,,,
03.550,2.127247095,,,
03.552,2.674854845,,,
03.554,2.804551417,,,
03.556,2.963069449,,,
03.558,3.00630164,,,
03.560,2.99189091,,,
03.562,2.674854845,,,
03.564,2.530747542,,,
03.566,1.7958003,,,
03.568,2.199300746,,,
03.570,2.271354398,,,
03.572,2.891015798,,,
03.574,3.063944561,,,
03.576,3.236873324,,,
03.578,3.063944561,,,
03.580,2.905426528,,,
03.582,2.573979733,,,
03.584,2.084014904,,,
03.586,1.752568109,,,
03.588,2.098425635,,,
03.590,2.602801193,,,
03.592,2.97748018,,,
03.594,2.891015798,,,
03.596,3.150408943,,,
03.598,3.092766022,,,
03.600,2.99189091,,,
03.602,2.545158272,,,
03.604,2.372229509,,,
03.606,2.098425635,,,
03.608,2.170479286,,,
03.610,2.487515351,,,
03.612,2.97748018,,,
03.614,3.107176752,,,
03.616,3.063944561,,,
03.618,3.135998212,,,
03.620,2.732497766,,,
03.622,2.703676305,,,
03.624,2.285765128,,,
03.626,2.127247095,,,
03.628,2.300175858,,,
03.630,2.271354398,,,
03.632,2.804551417,,,
03.634,3.222462594,,,
03.636,3.56832012,,,
03.638,3.380980627,,,
03.640,3.092766022,,,
03.642,2.876605068,,,
03.644,2.588390463,,,
03.646,1.781389569,,,
03.648,2.271354398,,,
03.650,2.804551417,,,
03.652,3.424212817,,,
03.654,3.55390939,,,
03.656,3.150408943,,,
03.658,3.251284054,,,
03.660,3.02071237,,,
03.662,2.559569003,,,
03.664,2.602801193,,,
03.666,2.444283161,,,
03.668,2.674854845,,,
03.670,3.107176752,,,
03.672,3.366569896,,,
03.674,3.55390939,,,
03.676,3.510677199,,,
03.678,3.467445008,,,
03.680,3.453034278,,,
03.682,3.049533831,,,
03.684,2.905426528,,,
03.686,2.97748018,,,
03.688,3.00630164,,,
03.690,3.280105515,,,
03.692,3.56832012,,,
03.694,3.856534725,,,
03.696,3.899766915,,,
03.698,4.130338599,,,
03.700,3.842123994,,,
03.702,3.179230403,,,
03.704,3.438623548,,,
03.706,3.453034278,,,
03.708,3.611552311,,,
03.710,3.971820567,,,
03.712,4.130338599,,,
03.714,4.058284948,,,
03.716,4.346499553,,,
03.718,4.130338599,,,
03.720,4.058284948,,,
03.722,3.726838153,,,
03.724,3.55390939,,,
03.726,3.352159166,,,
03.728,3.525087929,,,
03.730,4.14474933,,,
03.732,4.17357079,,,
03.734,4.447374665,,,
03.736,4.332088823,,,
03.738,4.216802981,,,
03.740,3.928588376,,,
03.742,3.424212817,,,
03.744,3.352159166,,,
03.746,3.236873324,,,
03.748,3.438623548,,,
03.750,3.741248883,,,
03.752,4.015052757,,,
03.754,4.115927869,,,
03.756,4.317678093,,,
03.758,3.885356185,,,
03.760,3.496266469,,,
03.762,2.99189091,,,
03.764,2.689265575,,,
03.766,2.718087035,,,
03.768,2.97748018,,,
03.770,3.280105515,,,
03.772,3.453034278,,,
03.774,3.813302534,,,
03.776,3.798891804,,,
03.778,3.308926975,,,
03.780,2.97748018,,,
03.782,2.689265575,,,
03.784,2.818962147,,,
03.786,2.588390463,,,
03.788,2.516336812,,,
03.790,2.818962147,,,
03.792,3.107176752,,,
03.794,3.510677199,,,
03.796,3.179230403,,,
03.798,2.876605068,,,
03.800,2.617211924,,,
03.802,2.242532937,,,
03.804,2.328997319,,,
03.806,2.372229509,,,
03.808,2.473104621,,,
03.810,2.833372877,,,
03.812,3.150408943,,,
03.814,3.121587482,,,
03.816,3.208051864,,,
03.818,3.294516245,,,
03.820,2.689265575,,,
03.822,2.213711477,,,
03.824,2.285765128,,,
03.826,2.213711477,,,
03.828,2.098425635,,,
03.830,2.631622654,,,
03.832,3.352159166,,,
03.834,3.222462594,,,
03.836,3.193641133,,,
03.838,3.02071237,,,
03.840,2.516336812,,,
03.842,1.882264681,,,
03.844,2.199300746,,,
03.846,2.4154617,,,
03.848,2.501926082,,,
03.850,2.876605068,,,
03.852,2.963069449,,,
03.854,3.308926975,,,
03.856,3.00630164,,,
03.858,2.818962147,,,
03.860,2.559569003,,,
03.862,2.631622654,,,
03.864,2.228122207,,,
03.866,2.271354398,,,
03.868,2.300175858,,,
03.870,2.876605068,,,
03.872,3.150408943,,,
03.874,3.135998212,,,
03.876,2.963069449,,,
03.878,2.790140687,,,
03.880,2.746908496,,,
03.882,2.026371983,,,
03.884,2.372229509,,,
03.886,2.213711477,,,
03.888,2.501926082,,,
03.890,2.746908496,,,
03.892,3.063944561,,,
03.894,3.352159166,,,
03.896,3.251284054,,,
03.898,3.164819673,,,
03.900,2.862194338,,,
03.902,2.228122207,,,
03.904,2.040782714,,,
03.906,2.170479286,,,
03.908,2.300175858,,,
03.910,2.97748018,,,
03.912,3.453034278,,,
03.914,3.208051864,,,
03.916,3.179230403,,,
03.918,2.862194338,,,
03.920,2.444283161,,,
03.922,1.954318332,,,
03.924,2.228122207,,,
03.926,2.343408049,,,
03.928,2.617211924,,,
03.930,3.164819673,,,
03.932,3.092766022,,,
03.934,3.049533831,,,
03.936,3.179230403,,,
03.938,2.97748018,,,
03.940,2.357818779,,,
03.942,1.997550523,,,
03.944,2.372229509,,,
03.946,2.631622654,,,
03.948,2.372229509,,,
03.950,2.559569003,,,
03.952,2.919837259,,,
03.954,3.164819673,,,
03.956,2.948658719,,,
03.958,2.934247989,,,
03.960,2.617211924,,,
03.962,2.228122207,,,
03.964,2.141657825,,,
03.966,2.4154617,,,
03.968,2.328997319,,,
03.970,2.876605068,,,
03.972,3.251284054,,,
03.974,3.409802087,,,
03.976,3.063944561,,,
03.978,2.4154617,,,
03.980,2.300175858,,,
03.982,1.983139793,,,
03.984,1.983139793,,,
03.986,2.228122207,,,
03.988,2.862194338,,,
03.990,3.193641133,,,
03.992,3.236873324,,,
03.994,2.746908496,,,
03.996,2.42987243,,,
03.998,2.703676305,,,
04.000,2.545158272,,,
04.002,2.343408049,,,
04.004,2.127247095,,,
04.006,2.285765128,,,
04.008,2.487515351,,,
04.010,2.934247989,,,
04.012,3.092766022,,,
04.014,3.481855738,,,
04.016,2.891015798,,,
04.018,2.40105097,,,
04.020,2.055193444,,,
04.022,1.968729062,,,
04.024,2.112836365,,,
04.026,2.141657825,,,
04.028,2.573979733,,,
04.030,2.905426528,,,
04.032,3.00630164,,,
04.034,3.251284054,,,
04.036,2.674854845,,,
04.038,2.42987243,,,
04.040,2.170479286,,,
04.042,2.127247095,,,
04.044,2.127247095,,,
04.046,2.328997319,,,
04.048,2.631622654,,,
04.050,3.107176752,,,
04.052,3.453034278,,,
04.054,3.251284054,,,
04.056,2.905426528,,,
04.058,2.473104621,,,
04.060,2.098425635,,,
04.062,2.026371983,,,
04.064,2.112836365,,,
04.066,2.271354398,,,
04.068,2.631622654,,,
04.070,2.934247989,,,
04.072,3.049533831,,,
04.074,3.035123101,,,
04.076,2.703676305,,,
04.078,2.545158272,,,
04.080,1.968729062,,,
04.082,1.968729062,,,
04.084,2.242532937,,,
04.086,2.530747542,,,
04.088,2.919837259,,,
04.090,3.135998212,,,
04.092,3.265694785,,,
04.094,3.035123101,,,
04.096,2.674854845,,,
04.098,2.573979733,,,
04.100,2.170479286,,,
04.102,1.853443221,,,
04.104,2.112836365,,,
04.106,2.242532937,,,
04.108,2.919837259,,,
04.110,3.208051864,,,
04.112,3.063944561,,,
04.114,3.063944561,,,
04.116,2.833372877,,,
04.118,2.473104621,,,
04.120,2.112836365,,,
04.122,2.127247095,,,
04.124,2.011961253,,,
04.126,2.458693891,,,
04.128,2.99189091,,,
04.130,3.135998212,,,
04.132,2.775729956,,,
04.134,2.99189091,,,
04.136,2.963069449,,,
04.138,2.617211924,,,
04.140,2.184890016,,,
04.142,1.968729062,,,
04.144,2.42987243,,,
04.146,2.271354398,,,
04.148,2.530747542,,,
04.150,3.179230403,,,
04.152,3.640373771,,,
04.154,3.208051864,,,
04.156,3.135998212,,,
04.158,2.372229509,,,
04.160,2.40105097,,,
04.162,2.545158272,,,
04.164,2.42987243,,,
04.166,2.703676305,,,
04.168,2.804551417,,,
04.170,2.919837259,,,
04.172,3.308926975,,,
04.174,3.337748436,,,
04.176,3.049533831,,,
04.178,2.617211924,,,
04.180,2.156068556,,,
04.182,2.4154617,,,
04.184,2.444283161,,,
04.186,2.646033384,,,
04.188,3.02071237,,,
04.190,3.294516245,,,
04.192,3.150408943,,,
04.194,3.063944561,,,
04.196,3.049533831,,,
04.198,2.602801193,,,
04.200,2.242532937,,,
04.202,2.170479286,,,
04.204,2.256943667,,,
04.206,2.4154617,,,
04.208,2.963069449,,,
04.210,2.833372877,,,
04.212,2.934247989,,,
04.214,2.891015798,,,
04.216,2.818962147,,,
04.218,2.444283161,,,
04.220,2.170479286,,,
04.222,2.112836365,,,
04.224,2.141657825,,,
04.226,2.170479286,,,
04.228,2.631622654,,,
04.230,2.862194338,,,
04.232,3.107176752,,,
04.234,3.193641133,,,
04.236,2.833372877,,,
04.238,2.199300746,,,
04.240,2.127247095,,,
04.242,1.882264681,,,
04.244,1.997550523,,,
04.246,2.501926082,,,
04.248,2.718087035,,,
04.250,2.948658719,,,
04.252,3.092766022,,,
04.254,2.790140687,,,
04.256,2.588390463,,,
04.258,2.487515351,,,
04.260,2.127247095,,,
04.262,1.83903249,,,
04.264,2.098425635,,,
04.266,2.718087035,,,
04.268,2.905426528,,,
04.270,3.035123101,,,
04.272,2.818962147,,,
04.274,2.617211924,,,
04.276,2.689265575,,,
04.278,2.602801193,,,
04.280,2.127247095,,,
04.282,1.896675411,,,
04.284,2.098425635,,,
04.286,1.81021103,,,
04.288,2.530747542,,,
04.290,3.107176752,,,
04.292,2.99189091,,,
04.294,2.761319226,,,
04.296,3.092766022,,,
04.298,2.660444114,,,
04.300,1.939907602,,,
04.302,2.184890016,,,
04.304,2.631622654,,,
04.306,3.107176752,,,
04.308,3.726838153,,,
04.310,4.202392251,,,
04.312,4.476196125,,,
04.314,4.000642027,,,
04.316,3.899766915,,,
04.318,3.813302534,,,
04.320,3.56832012,,,
04.322,3.395391357,,,
04.324,3.208051864,,,
04.326,3.294516245,,,
04.328,3.395391357,,,
04.330,3.179230403,,,
04.332,2.905426528,,,
04.334,2.718087035,,,
04.336,2.184890016,,,
04.338,1.507585695,,,
04.340,1.464353504,,,
04.342,1.608460806,,,
04.344,1.478764234,,,
04.346,1.694925188,,,
04.348,2.098425635,,,
04.350,1.925496872,,,
04.352,2.38664024,,,
04.354,2.199300746,,,
04.356,1.83903249,,,
04.358,1.594050076,,,
04.360,1.7958003,,,
04.362,1.766978839,,,
04.364,2.011961253,,,
04.366,2.559569003,,,
04.368,2.689265575,,,
04.370,2.646033384,,,
04.372,2.746908496,,,
04.374,2.790140687,,,
04.376,2.285765128,,,
04.378,2.055193444,,,
04.380,2.098425635,,,
04.382,2.069604174,,,
04.384,2.184890016,,,
04.386,2.790140687,,,
04.388,2.602801193,,,
04.390,2.718087035,,,
04.392,3.00630164,,,
04.394,2.761319226,,,
04.396,2.487515351,,,
04.398,2.602801193,,,
04.400,1.997550523,,,
04.402,2.199300746,,,
04.404,2.38664024,,,
04.406,2.891015798,,,
04.408,2.919837259,,,
04.410,3.150408943,,,
04.412,3.092766022,,,
04.414,2.818962147,,,
04.416,2.516336812,,,
04.418,2.285765128,,,
04.420,1.997550523,,,
04.422,1.925496872,,,
04.424,2.458693891,,,
04.426,3.00630164,,,
04.428,3.02071237,,,
04.430,2.948658719,,,
04.432,3.078355291,,,
04.434,2.919837259,,,
04.436,2.501926082,,,
04.438,2.602801193,,,
04.440,2.328997319,,,
04.442,1.550817885,,,
04.444,2.271354398,,,
04.446,3.352159166,,,
04.448,3.380980627,,,
04.450,2.660444114,,,
04.452,2.732497766,,,
04.454,3.107176752,,,
04.456,2.487515351,,,
04.458,2.314586588,,,
04.460,2.228122207,,,
04.462,2.343408049,,,
04.464,2.458693891,,,
04.466,2.631622654,,,
04.468,3.366569896,,,
04.470,3.525087929,,,
04.472,3.121587482,,,
04.474,3.121587482,,,
04.476,2.99189091,,,
04.478,2.718087035,,,
04.480,2.343408049,,,
04.482,2.271354398,,,
04.484,2.38664024,,,
04.486,2.862194338,,,
04.488,3.323337706,,,
04.490,3.481855738,,,
04.492,3.481855738,,,
04.494,2.891015798,,,
04.496,2.718087035,,,
04.498,2.674854845,,,
04.500,2.732497766,,,
04.502,2.501926082,,,
04.504,2.876605068,,,
04.506,3.58273085,,,
04.508,3.899766915,,,
04.510,4.274445902,,,
04.512,3.683605962,,,
04.514,3.438623548,,,
04.516,3.00630164,,,
04.518,2.847783608,,,
04.520,2.948658719,,,
04.522,3.107176752,,,
04.524,3.150408943,,,
04.526,3.870945455,,,
04.528,4.043874218,,,
04.530,3.986231297,,,
04.532,4.130338599,,,
04.534,4.000642027,,,
04.536,3.453034278,,,
04.538,3.380980627,,,
04.540,3.525087929,,,
04.542,3.669195232,,,
04.544,3.611552311,,,
04.546,3.539498659,,,
04.548,4.17357079,,,
04.550,4.14474933,,,
04.552,3.755659613,,,
04.554,3.741248883,,,
04.556,3.813302534,,,
04.558,3.510677199,,,
04.560,3.121587482,,,
04.562,3.208051864,,,
04.564,3.409802087,,,
04.566,3.957409836,,,
04.568,4.115927869,,,
04.570,4.072695678,,,
04.572,3.928588376,,,
04.574,3.669195232,,,
04.576,3.135998212,,,
04.578,2.891015798,,,
04.580,3.107176752,,,
04.582,3.265694785,,,
04.584,3.352159166,,,
04.586,3.698016692,,,
04.588,4.043874218,,,
04.590,3.842123994,,,
04.592,2.963069449,,,
04.594,3.02071237,,,
04.596,2.746908496,,,
04.598,2.876605068,,,
04.600,2.746908496,,,
04.602,2.545158272,,,
04.604,2.97748018,,,
04.606,3.337748436,,,
04.608,3.625963041,,,
04.610,3.294516245,,,
04.612,2.689265575,,,
04.614,2.790140687,,,
04.616,2.646033384,,,
04.618,2.156068556,,,
04.620,2.343408049,,,
04.622,2.617211924,,,
04.624,2.40105097,,,
04.626,3.078355291,,,
04.628,3.193641133,,,
04.630,3.56832012,,,
04.632,4.043874218,,,
04.634,2.862194338,,,
04.636,1.939907602,,,
04.638,1.421121313,,,
04.640,2.156068556,,,
04.642,2.184890016,,,
04.644,2.718087035,,,
04.646,2.99189091,,,
04.648,2.876605068,,,
04.650,2.963069449,,,
04.652,2.818962147,,,
04.654,2.790140687,,,
04.656,2.098425635,,,
04.658,2.011961253,,,
04.660,2.127247095,,,
04.662,2.199300746,,,
04.664,2.660444114,,,
04.666,2.97748018,,,
04.668,3.251284054,,,
04.670,3.366569896,,,
04.672,2.97748018,,,
04.674,2.4154617,,,
04.676,2.141657825,,,
04.678,2.026371983,,,
04.680,1.867853951,,,
04.682,2.372229509,,,
04.684,2.891015798,,,
04.686,3.063944561,,,
04.688,2.905426528,,,
04.690,3.135998212,,,
04.692,3.00630164,,,
04.694,2.847783608,,,
04.696,2.444283161,,,
04.698,2.084014904,,,
04.700,2.084014904,,,
04.702,2.617211924,,,
04.704,2.40105097,,,
04.706,3.251284054,,,
04.708,3.337748436,,,
04.710,3.078355291,,,
04.712,2.97748018,,,
04.714,2.473104621,,,
04.716,2.4154617,,,
04.718,2.184890016,,,
04.720,2.444283161,,,
04.722,2.372229509,,,
04.724,2.804551417,,,
04.726,3.02071237,,,
04.728,3.366569896,,,
04.730,2.891015798,,,
04.732,2.948658719,,,
04.734,2.732497766,,,
04.736,2.026371983,,,
04.738,2.156068556,,,
04.740,2.084014904,,,
04.742,2.4154617,,,
04.744,3.121587482,,,
04.746,3.135998212,,,
04.748,3.049533831,,,
04.750,2.761319226,,,
04.752,2.761319226,,,
04.754,2.444283161,,,
04.756,2.141657825,,,
04.758,2.199300746,,,
04.760,2.300175858,,,
04.762,2.170479286,,,
04.764,2.660444114,,,
04.766,3.02071237,,,
04.768,3.308926975,,,
04.770,3.294516245,,,
04.772,3.193641133,,,
04.774,2.646033384,,,
04.776,2.127247095,,,
04.778,2.040782714,,,
04.780,2.069604174,,,
04.782,2.473104621,,,
04.784,2.847783608,,,
04.786,3.078355291,,,
04.788,2.99189091,,,
04.790,2.804551417,,,
04.792,2.919837259,,,
04.794,2.199300746,,,
04.796,1.853443221,,,
04.798,1.968729062,,,
04.800,2.228122207,,,
04.802,2.487515351,,,
04.804,2.847783608,,,
04.806,3.265694785,,,
04.808,3.092766022,,,
04.810,3.00630164,,,
04.812,2.746908496,,,
04.814,2.530747542,,,
04.816,2.127247095,,,
04.818,1.925496872,,,
04.820,2.098425635,,,
04.822,2.42987243,,,
04.824,2.790140687,,,
04.826,2.97748018,,,
04.828,2.919837259,,,
04.830,2.948658719,,,
04.832,3.035123101,,,
04.834,2.559569003,,,
04.836,2.271354398,,,
04.838,2.256943667,,,
04.840,2.127247095,,,
04.842,2.602801193,,,
04.844,2.847783608,,,
04.846,2.919837259,,,
04.848,2.876605068,,,
04.850,2.934247989,,,
04.852,2.689265575,,,
04.854,2.444283161,,,
04.856,2.285765128,,,
04.858,2.199300746,,,
04.860,2.228122207,,,
04.862,2.891015798,,,
04.864,3.236873324,,,
04.866,2.602801193,,,
04.868,2.4154617,,,
04.870,2.646033384,,,
04.872,2.847783608,,,
04.874,2.444283161,,,
04.876,1.867853951,,,
04.878,2.184890016,,,
04.880,2.444283161,,,
04.882,2.242532937,,,
04.884,2.703676305,,,
04.886,3.02071237,,,
04.888,3.294516245,,,
04.890,3.135998212,,,
04.892,3.208051864,,,
04.894,2.458693891,,,
04.896,2.213711477,,,
04.898,2.199300746,,,
04.900,2.112836365,,,
04.902,2.646033384,,,
04.904,2.963069449,,,
04.906,3.251284054,,,
04.908,3.380980627,,,
04.910,3.236873324,,,
04.912,2.646033384,,,
04.914,2.170479286,,,
04.916,2.516336812,,,
04.918,1.911086142,,,
04.920,2.4154617,,,
04.922,2.631622654,,,
04.924,2.934247989,,,
04.926,3.092766022,,,
04.928,3.078355291,,,
04.930,3.00630164,,,
04.932,2.876605068,,,
04.934,2.38664024,,,
04.936,2.069604174,,,
04.938,1.983139793,,,
04.940,2.516336812,,,
04.942,2.818962147,,,
04.944,2.602801193,,,
04.946,2.790140687,,,
04.948,2.732497766,,,
04.950,2.646033384,,,
04.952,2.573979733,,,
04.954,2.285765128,,,
04.956,2.372229509,,,
04.958,2.040782714,,,
04.960,2.357818779,,,
04.962,2.602801193,,,
04.964,2.934247989,,,
04.966,3.049533831,,,
04.968,2.934247989,,,
04.970,2.919837259,,,
04.972,2.660444114,,,
04.974,2.4154617,,,
04.976,2.40105097,,,
04.978,1.925496872,,,
04.980,1.694925188,,,
04.982,2.718087035,,,
04.984,2.876605068,,,
04.986,3.049533831,,,
04.988,3.02071237,,,
04.990,2.818962147,,,
04.992,2.703676305,,,
04.994,1.997550523,,,
04.996,2.026371983,,,
04.998,2.170479286,,,
05.000,2.38664024,,,
05.002,2.588390463,,,
05.004,3.00630164,,,
05.006,3.150408943,,,
05.008,2.847783608,,,
05.010,2.573979733,,,
05.012,2.314586588,,,
05.014,2.271354398,,,
05.016,2.127247095,,,
05.018,2.127247095,,,
05.020,2.141657825,,,
05.022,2.703676305,,,
05.024,3.00630164,,,
05.026,3.092766022,,,
05.028,3.208051864,,,
05.030,3.092766022,,,
05.032,2.545158272,,,
05.034,2.300175858,,,
05.036,2.228122207,,,
05.038,2.646033384,,,
05.040,2.790140687,,,
05.042,3.02071237,,,
05.044,3.208051864,,,
05.046,3.611552311,,,
05.048,3.59714158,,,
05.050,3.770070343,,,
05.052,3.870945455,,,
05.054,3.885356185,,,
05.056,3.092766022,,,
05.058,2.617211924,,,
05.060,2.804551417,,,
05.062,3.179230403,,,
05.064,2.948658719,,,
05.066,2.818962147,,,
05.068,2.631622654,,,
05.070,2.559569003,,,
05.072,1.82462176,,,
05.074,1.651692997,,,
05.076,1.406710583,,,
05.078,1.694925188,,,
05.080,2.112836365,,,
05.082,2.156068556,,,
05.084,2.256943667,,,
05.086,2.256943667,,,
05.088,1.997550523,,,
05.090,2.213711477,,,
05.092,1.939907602,,,
05.094,1.694925188,,,
05.096,1.334656932,,,
05.098,1.363478392,,,
05.100,1.896675411,,,
05.102,2.703676305,,,
05.104,3.222462594,,,
05.106,3.063944561,,,
05.108,3.00630164,,,
05.110,2.862194338,,,
05.112,2.38664024,,,
05.114,2.228122207,,,
05.116,2.127247095,,,
05.118,1.939907602,,,
05.120,2.098425635,,,
05.122,2.660444114,,,
05.124,2.847783608,,,
05.126,2.905426528,,,
05.128,3.121587482,,,
05.130,2.963069449,,,
05.132,2.458693891,,,
05.134,2.242532937,,,
05.136,2.300175858,,,
05.138,2.42987243,,,
05.140,2.141657825,,,
05.142,2.746908496,,,
05.144,3.135998212,,,
05.146,3.366569896,,,
05.148,2.919837259,,,
05.150,2.790140687,,,
05.152,2.38664024,,,
05.154,2.271354398,,,
05.156,2.184890016,,,
05.158,2.170479286,,,
05.160,2.300175858,,,
05.162,2.689265575,,,
05.164,3.035123101,,,
05.166,3.481855738,,,
05.168,3.265694785,,,
05.170,2.559569003,,,
05.172,2.156068556,,,
05.174,1.83903249,,,
05.176,1.766978839,,,
05.178,2.242532937,,,
05.180,2.501926082,,,
05.182,2.97748018,,,
05.184,3.107176752,,,
05.186,3.323337706,,,
05.188,3.481855738,,,
05.190,3.251284054,,,
05.192,2.38664024,,,
05.194,1.766978839,,,
05.196,2.026371983,,,
05.198,2.285765128,,,
05.200,2.646033384,,,
05.202,3.035123101,,,
05.204,3.280105515,,,
05.206,3.496266469,,,
05.208,3.035123101,,,
05.210,2.732497766,,,
05.212,2.444283161,,,
05.214,2.141657825,,,
05.216,2.011961253,,,
05.218,2.300175858,,,
05.220,2.746908496,,,
05.222,3.121587482,,,
05.224,3.236873324,,,
05.226,3.092766022,,,
05.228,3.323337706,,,
05.230,3.121587482,,,
05.232,2.775729956,,,
05.234,2.847783608,,,
05.236,2.99189091,,,
05.238,3.193641133,,,
05.240,2.588390463,,,
05.242,2.99189091,,,
05.244,3.481855738,,,
05.246,3.467445008,,,
05.248,3.179230403,,,
05.250,2.876605068,,,
05.252,2.602801193,,,
05.254,3.395391357,,,
05.256,3.337748436,,,
05.258,2.847783608,,,
05.260,2.775729956,,,
05.262,3.395391357,,,
05.264,3.957409836,,,
05.266,3.928588376,,,
05.268,4.115927869,,,
05.270,3.712427422,,,
05.272,3.193641133,,,
05.274,2.963069449,,,
05.276,2.99189091,,,
05.278,3.222462594,,,
05.280,3.611552311,,,
05.282,4.000642027,,,
05.284,3.899766915,,,
05.286,3.942999106,,,
05.288,3.813302534,,,
05.290,3.611552311,,,
05.292,3.366569896,,,
05.294,3.179230403,,,
05.296,2.905426528,,,
05.298,2.99189091,,,
05.300,3.510677199,,,
05.302,3.741248883,,,
05.304,3.625963041,,,
05.306,3.712427422,,,
05.308,3.770070343,,,
05.310,3.625963041,,,
05.312,2.833372877,,,
05.314,2.4154617,,,
05.316,2.516336812,,,
05.318,2.674854845,,,
05.320,3.222462594,,,
05.322,3.539498659,,,
05.324,3.352159166,,,
05.326,3.193641133,,,
05.328,3.135998212,,,
05.330,2.963069449,,,
05.332,2.718087035,,,
05.334,2.775729956,,,
05.336,2.559569003,,,
05.338,2.473104621,,,
05.340,2.804551417,,,
05.342,3.121587482,,,
05.344,3.035123101,,,
05.346,3.107176752,,,
05.348,3.395391357,,,
05.350,2.746908496,,,
05.352,2.314586588,,,
05.354,2.271354398,,,
05.356,1.983139793,,,
05.358,2.444283161,,,
05.360,2.732497766,,,
05.362,3.035123101,,,
05.364,3.424212817,,,
05.366,3.236873324,,,
05.368,2.934247989,,,
05.370,2.444283161,,,
05.372,2.199300746,,,
05.374,1.896675411,,,
05.376,1.911086142,,,
05.378,2.213711477,,,
05.380,2.545158272,,,
05.382,2.847783608,,,
05.384,3.294516245,,,
05.386,3.294516245,,,
05.388,3.049533831,,,
05.390,2.660444114,,,
05.392,2.069604174,,,
05.394,2.084014904,,,
05.396,2.141657825,,,
05.398,2.573979733,,,
05.400,2.99189091,,,
05.402,3.308926975,,,
05.404,3.222462594,,,
05.406,2.775729956,,,
05.408,2.602801193,,,
05.410,2.256943667,,,
05.412,2.372229509,,,
05.414,1.954318332,,,
05.416,1.997550523,,,
05.418,2.213711477,,,
05.420,2.746908496,,,
05.422,3.135998212,,,
05.424,3.150408943,,,
05.426,2.919837259,,,
05.428,2.919837259,,,
05.430,2.328997319,,,
05.432,2.4154617,,,
05.434,2.156068556,,,
05.436,2.256943667,,,
05.438,2.285765128,,,
05.440,2.891015798,,,
05.442,3.02071237,,,
05.444,3.035123101,,,
05.446,2.833372877,,,
05.448,2.617211924,,,
05.450,2.473104621,,,
05.452,2.343408049,,,
05.454,2.473104621,,,
05.456,2.372229509,,,
05.458,2.573979733,,,
05.460,3.164819673,,,
05.462,2.99189091,,,
05.464,3.222462594,,,
05.466,2.97748018,,,
05.468,2.862194338,,,
05.470,2.444283161,,,
05.472,2.242532937,,,
05.474,2.199300746,,,
05.476,2.4154617,,,
05.478,2.314586588,,,
05.480,2.761319226,,,
05.482,3.078355291,,,
05.484,3.078355291,,,
05.486,2.99189091,,,
05.488,2.343408049,,,
05.490,2.184890016,,,
05.492,2.357818779,,,
05.494,2.184890016,,,
05.496,2.271354398,,,
05.498,2.444283161,,,
05.500,2.963069449,,,
05.502,3.424212817,,,
05.504,3.164819673,,,
05.506,2.862194338,,,
05.508,2.631622654,,,
05.510,2.184890016,,,
05.512,1.939907602,,,
05.514,2.084014904,,,
05.516,2.271354398,,,
05.518,2.718087035,,,
05.520,2.963069449,,,
05.522,3.870945455,,,
05.524,3.496266469,,,
05.526,2.545158272,,,
05.528,2.458693891,,,
05.530,2.242532937,,,
05.532,1.83903249,,,
05.534,2.213711477,,,
05.536,2.156068556,,,
05.538,2.487515351,,,
05.540,2.545158272,,,
05.542,3.208051864,,,
05.544,3.107176752,,,
05.546,2.876605068,,,
05.548,2.357818779,,,
05.550,2.127247095,,,
05.552,1.781389569,,,
05.554,2.112836365,,,
05.556,2.487515351,,,
05.558,2.689265575,,,
05.560,2.732497766,,,
05.562,2.905426528,,,
05.564,2.948658719,,,
05.566,2.919837259,,,
05.568,2.602801193,,,
05.570,1.968729062,,,
05.572,1.766978839,,,
05.574,1.968729062,,,
05.576,2.213711477,,,
05.578,2.660444114,,,
05.580,2.746908496,,,
05.582,2.790140687,,,
05.584,2.934247989,,,
05.586,2.833372877,,,
05.588,2.862194338,,,
05.590,2.357818779,,,
05.592,1.82462176,,,
05.594,2.040782714,,,
05.596,2.40105097,,,
05.598,2.646033384,,,
05.600,2.862194338,,,
05.602,2.919837259,,,
05.604,2.97748018,,,
05.606,2.516336812,,,
05.608,2.242532937,,,
05.610,2.127247095,,,
05.612,2.127247095,,,
05.614,1.939907602,,,
05.616,2.184890016,,,
05.618,2.602801193,,,
05.620,3.150408943,,,
05.622,3.337748436,,,
05.624,3.179230403,,,
05.626,2.660444114,,,
05.628,2.256943667,,,
05.630,2.213711477,,,
05.632,1.968729062,,,
05.634,1.954318332,,,
05.636,2.328997319,,,
05.638,2.631622654,,,
05.640,3.00630164,,,
05.642,2.847783608,,,
05.644,2.732497766,,,
05.646,3.150408943,,,
05.648,2.646033384,,,
05.650,2.256943667,,,
05.652,1.7958003,,,
05.654,1.954318332,,,
05.656,2.026371983,,,
05.658,2.660444114,,,
05.660,2.919837259,,,
05.662,2.919837259,,,
05.664,2.919837259,,,
05.666,2.905426528,,,
05.668,2.42987243,,,
05.670,1.939907602,,,
05.672,2.055193444,,,
05.674,2.127247095,,,
05.676,2.011961253,,,
05.678,2.703676305,,,
05.680,2.934247989,,,
05.682,2.833372877,,,
05.684,2.833372877,,,
05.686,2.588390463,,,
05.688,2.271354398,,,
05.690,1.83903249,,,
05.692,2.141657825,,,
05.694,1.867853951,,,
05.696,1.939907602,,,
05.698,2.38664024,,,
05.700,3.00630164,,,
05.702,2.934247989,,,
05.704,3.049533831,,,
05.706,2.876605068,,,
05.708,2.271354398,,,
05.710,2.040782714,,,
05.712,2.069604174,,,
05.714,2.156068556,,,
05.716,2.026371983,,,
05.718,2.501926082,,,
05.720,3.049533831,,,
05.722,2.948658719,,,
05.724,2.948658719,,,
05.726,2.746908496,,,
05.728,2.372229509,,,
05.730,2.42987243,,,
05.732,2.156068556,,,
05.734,1.896675411,,,
05.736,2.271354398,,,
05.738,2.573979733,,,
05.740,2.948658719,,,
05.742,3.121587482,,,
05.744,3.150408943,,,
05.746,2.617211924,,,
05.748,2.040782714,,,
05.750,1.752568109,,,
05.752,2.084014904,,,
05.754,2.38664024,,,
05.756,2.501926082,,,
05.758,2.833372877,,,
05.760,3.078355291,,,
05.762,3.049533831,,,
05.764,2.948658719,,,
05.766,2.660444114,,,
05.768,2.4154617,,,
05.770,2.38664024,,,
05.772,2.646033384,,,
05.774,2.761319226,,,
05.776,3.164819673,,,
05.778,3.928588376,,,
05.780,4.245624441,,,
05.782,4.332088823,,,
05.784,3.813302534,,,
05.786,3.366569896,,,
05.788,2.934247989,,,
05.790,2.631622654,,,
05.792,2.256943667,,,
05.794,2.141657825,,,
05.796,2.42987243,,,
05.798,2.501926082,,,
05.800,2.271354398,,,
05.802,2.501926082,,,
05.804,2.127247095,,,
05.806,1.896675411,,,
05.808,1.666103727,,,
05.810,1.666103727,,,
05.812,1.392299853,,,
05.814,1.320246201,,,
05.816,1.622871537,,,
05.818,2.285765128,,,
05.820,2.573979733,,,
05.822,2.732497766,,,
05.824,2.473104621,,,
05.826,2.055193444,,,
05.828,2.040782714,,,
05.830,1.882264681,,,
05.832,1.752568109,,,
05.834,2.098425635,,,
05.836,2.588390463,,,
05.838,2.573979733,,,
05.840,3.063944561,,,
05.842,3.035123101,,,
05.844,2.689265575,,,
05.846,2.501926082,,,
05.848,2.328997319,,,
05.850,2.055193444,,,
05.852,1.925496872,,,
05.854,2.285765128,,,
05.856,2.545158272,,,
05.858,2.559569003,,,
05.860,2.891015798,,,
05.862,2.862194338,,,
05.864,2.646033384,,,
05.866,2.660444114,,,
05.868,2.530747542,,,
05.870,2.271354398,,,
05.872,1.983139793,,,
05.874,1.968729062,,,
05.876,2.343408049,,,
05.878,2.818962147,,,
05.880,2.876605068,,,
05.882,3.063944561,,,
05.884,3.00630164,,,
05.886,2.631622654,,,
05.888,2.170479286,,,
05.890,1.882264681,,,
05.892,1.738157379,,,
05.894,1.709335918,,,
05.896,2.588390463,,,
05.898,3.208051864,,,
05.900,3.409802087,,,
05.902,3.164819673,,,
05.904,3.121587482,,,
05.906,2.545158272,,,
05.908,2.213711477,,,
05.910,2.026371983,,,
05.912,2.084014904,,,
05.914,1.983139793,,,
05.916,2.588390463,,,
05.918,3.179230403,,,
05.920,3.395391357,,,
05.922,3.308926975,,,
05.924,3.049533831,,,
05.926,2.530747542,,,
05.928,2.242532937,,,
05.930,1.983139793,,,
05.932,2.055193444,,,
05.934,2.242532937,,,
05.936,2.963069449,,,
05.938,3.251284054,,,
05.940,3.294516245,,,
05.942,2.934247989,,,
05.944,2.804551417,,,
05.946,2.847783608,,,
05.948,2.141657825,,,
05.950,2.026371983,,,
05.952,2.184890016,,,
05.954,2.559569003,,,
05.956,3.107176752,,,
05.958,3.366569896,,,
05.960,3.438623548,,,
05.962,3.510677199,,,
05.964,3.049533831,,,
05.966,2.833372877,,,
05.968,2.588390463,,,
05.970,2.285765128,,,
05.972,2.487515351,,,
05.974,2.732497766,,,
05.976,3.280105515,,,
05.978,3.481855738,,,
05.980,3.698016692,,,
05.982,3.712427422,,,
05.984,3.294516245,,,
05.986,2.963069449,,,
05.988,2.674854845,,,
05.990,2.790140687,,,
05.992,3.135998212,,,
05.994,3.251284054,,,
05.996,3.611552311,,,
05.998,3.899766915,,,
06.000,4.202392251,,,
06.002,4.043874218,,,
06.004,3.755659613,,,
06.006,3.611552311,,,
06.008,3.107176752,,,
06.010,2.862194338,,,
06.012,3.135998212,,,
06.014,3.222462594,,,
06.016,3.539498659,,,
06.018,3.914177646,,,
06.020,3.942999106,,,
06.022,4.029463488,,,
06.024,4.274445902,,,
06.026,3.56832012,,,
06.028,2.963069449,,,
06.030,3.049533831,,,
06.032,3.063944561,,,
06.034,3.092766022,,,
06.036,3.856534725,,,
06.038,4.260035172,,,
06.040,3.265694785,,,
06.042,3.726838153,,,
06.044,3.827713264,,,
06.046,2.948658719,,,
06.048,2.487515351,,,
06.050,2.170479286,,,
06.052,2.487515351,,,
06.054,2.761319226,,,
06.056,3.467445008,,,
06.058,3.525087929,,,
06.060,3.366569896,,,
06.062,3.395391357,,,
06.064,3.164819673,,,
06.066,2.501926082,,,
06.068,2.199300746,,,
06.070,2.127247095,,,
06.072,2.242532937,,,
06.074,2.516336812,,,
06.076,2.876605068,,,
06.078,3.294516245,,,
06.080,3.092766022,,,
06.082,2.905426528,,,
06.084,2.458693891,,,
06.086,2.199300746,,,
06.088,2.141657825,,,
06.090,2.127247095,,,
06.092,2.328997319,,,
06.094,2.487515351,,,
06.096,2.919837259,,,
06.098,3.135998212,,,
06.100,3.063944561,,,
06.102,2.847783608,,,
06.104,2.775729956,,,
06.106,2.4154617,,,
06.108,2.084014904,,,
06.110,2.141657825,,,
06.112,2.127247095,,,
06.114,2.487515351,,,
06.116,3.02071237,,,
06.118,3.063944561,,,
06.120,2.689265575,,,
06.122,2.876605068,,,
06.124,2.703676305,,,
06.126,2.228122207,,,
06.128,1.997550523,,,
06.130,2.199300746,,,
06.132,2.285765128,,,
06.134,2.199300746,,,
06.136,2.674854845,,,
06.138,3.150408943,,,
06.140,3.092766022,,,
06.142,2.804551417,,,
06.144,2.573979733,,,
06.146,2.242532937,,,
06.148,2.040782714,,,
06.150,2.011961253,,,
06.152,2.458693891,,,
06.154,2.646033384,,,
06.156,3.035123101,,,
06.158,2.818962147,,,
06.160,2.99189091,,,
06.162,3.063944561,,,
06.164,2.718087035,,,
06.166,2.271354398,,,
06.168,2.011961253,,,
06.170,1.911086142,,,
06.172,2.228122207,,,
06.174,2.674854845,,,
06.176,3.222462594,,,
06.178,3.107176752,,,
06.180,2.847783608,,,
06.182,2.99189091,,,
06.184,2.674854845,,,
06.186,2.256943667,,,
06.188,2.098425635,,,
06.190,2.127247095,,,
06.192,2.170479286,,,
06.194,2.473104621,,,
06.196,3.193641133,,,
06.198,3.265694785,,,
06.200,2.703676305,,,
06.202,2.573979733,,,
06.204,2.38664024,,,
06.206,1.968729062,,,
06.208,2.213711477,,,
06.210,2.156068556,,,
06.212,2.444283161,,,
06.214,2.775729956,,,
06.216,3.049533831,,,
06.218,2.99189091,,,
06.220,2.847783608,,,
06.222,2.718087035,,,
06.224,2.501926082,,,
06.226,2.127247095,,,
06.228,2.170479286,,,
06.230,2.42987243,,,
06.232,2.588390463,,,
06.234,2.847783608,,,
06.236,3.092766022,,,
06.238,3.352159166,,,
06.240,3.164819673,,,
06.242,2.516336812,,,
06.244,2.559569003,,,
06.246,2.646033384,,,
06.248,1.867853951,,,
06.250,2.011961253,,,
06.252,2.314586588,,,
06.254,2.38664024,,,
06.256,3.063944561,,,
06.258,3.063944561,,,
06.260,2.818962147,,,
06.262,2.718087035,,,
06.264,2.516336812,,,
06.266,2.300175858,,,
06.268,1.7958003,,,
06.270,1.83903249,,,
06.272,2.127247095,,,
06.274,2.703676305,,,
06.276,2.703676305,,,
06.278,2.948658719,,,
06.280,3.265694785,,,
06.282,2.689265575,,,
06.284,2.372229509,,,
06.286,2.127247095,,,
06.288,2.011961253,,,
06.290,2.372229509,,,
06.292,2.343408049,,,
06.294,2.891015798,,,
06.296,3.035123101,,,
06.298,2.934247989,,,
06.300,2.963069449,,,
06.302,2.97748018,,,
06.304,2.40105097,,,
06.306,2.026371983,,,
06.308,2.040782714,,,
06.310,2.38664024,,,
06.312,2.38664024,,,
06.314,2.775729956,,,
06.316,2.703676305,,,
06.318,2.948658719,,,
06.320,2.891015798,,,
06.322,2.891015798,,,
06.324,2.487515351,,,
06.326,2.127247095,,,
06.328,1.954318332,,,
06.330,1.997550523,,,
06.332,2.213711477,,,
06.334,2.646033384,,,
06.336,2.818962147,,,
06.338,3.236873324,,,
06.340,2.876605068,,,
06.342,2.862194338,,,
06.344,2.588390463,,,
06.346,2.213711477,,,
06.348,2.069604174,,,
06.350,2.213711477,,,
06.352,2.184890016,,,
06.354,2.746908496,,,
06.356,3.078355291,,,
06.358,3.222462594,,,
06.360,2.631622654,,,
06.362,2.573979733,,,
06.364,2.026371983,,,
06.366,2.170479286,,,
06.368,1.983139793,,,
06.370,2.055193444,,,
06.372,2.141657825,,,
06.374,3.092766022,,,
06.376,3.280105515,,,
06.378,2.99189091,,,
06.380,2.559569003,,,
06.382,2.501926082,,,
06.384,2.127247095,,,
06.386,1.882264681,,,
06.388,1.997550523,,,
06.390,2.184890016,,,
06.392,2.501926082,,,
06.394,2.746908496,,,
06.396,2.963069449,,,
06.398,3.208051864,,,
06.400,3.049533831,,,
06.402,2.891015798,,,
06.404,2.098425635,,,
06.406,1.464353504,,,
06.408,1.766978839,,,
06.410,2.271354398,,,
06.412,2.357818779,,,
06.414,2.746908496,,,
06.416,3.208051864,,,
06.418,2.761319226,,,
06.420,2.646033384,,,
06.422,2.473104621,,,
06.424,2.156068556,,,
06.426,1.954318332,,,
06.428,2.300175858,,,
06.430,2.127247095,,,
06.432,2.559569003,,,
06.434,2.674854845,,,
06.436,2.818962147,,,
06.438,3.150408943,,,
06.440,2.905426528,,,
06.442,2.674854845,,,
06.444,2.357818779,,,
06.446,2.141657825,,,
06.448,1.752568109,,,
06.450,1.738157379,,,
06.452,2.328997319,,,
06.454,3.121587482,,,
06.456,3.380980627,,,
06.458,2.891015798,,,
06.460,2.516336812,,,
06.462,2.271354398,,,
06.464,2.545158272,,,
06.466,2.314586588,,,
06.468,2.098425635,,,
06.470,1.896675411,,,
06.472,2.458693891,,,
06.474,2.862194338,,,
06.476,2.948658719,,,
06.478,2.602801193,,,
06.480,2.588390463,,,
06.482,2.473104621,,,
06.484,2.098425635,,,
06.486,1.781389569,,,
06.488,2.242532937,,,
06.490,2.112836365,,,
06.492,2.703676305,,,
06.494,2.934247989,,,
06.496,2.919837259,,,
06.498,2.674854845,,,
06.500,2.573979733,,,
06.502,2.285765128,,,
06.504,1.968729062,,,
06.506,1.954318332,,,
06.508,1.939907602,,,
06.510,2.055193444,,,
06.512,2.4154617,,,
06.514,2.732497766,,,
06.516,3.121587482,,,
06.518,3.280105515,,,
06.520,2.97748018,,,
06.522,2.804551417,,,
06.524,2.199300746,,,
06.526,1.983139793,,,
06.528,2.256943667,,,
06.530,2.055193444,,,
06.532,2.38664024,,,
06.534,2.559569003,,,
06.536,3.135998212,,,
06.538,2.934247989,,,
06.540,2.588390463,,,
06.542,2.300175858,,,
06.544,2.141657825,,,
06.546,1.81021103,,,
06.548,2.069604174,,,
06.550,2.314586588,,,
06.552,2.746908496,,,
06.554,2.905426528,,,
06.556,2.934247989,,,
06.558,3.150408943,,,
06.560,3.078355291,,,
06.562,2.847783608,,,
06.564,2.646033384,,,
06.566,2.156068556,,,
06.568,2.42987243,,,
06.570,2.256943667,,,
06.572,2.516336812,,,
06.574,2.97748018,,,
06.576,3.135998212,,,
06.578,3.063944561,,,
06.580,2.746908496,,,
06.582,2.40105097,,,
06.584,1.968729062,,,
06.586,1.968729062,,,
06.588,2.127247095,,,
06.590,2.501926082,,,
06.592,2.97748018,,,
06.594,3.208051864,,,
06.596,3.121587482,,,
06.598,2.818962147,,,
06.600,2.97748018,,,
06.602,2.833372877,,,
06.604,2.213711477,,,
06.606,1.925496872,,,
06.608,2.026371983,,,
06.610,2.156068556,,,
06.612,2.530747542,,,
06.614,2.847783608,,,
06.616,2.833372877,,,
06.618,2.559569003,,,
06.620,2.559569003,,,
06.622,2.069604174,,,
06.624,1.867853951,,,
06.626,1.781389569,,,
06.628,1.82462176,,,
06.630,2.458693891,,,
06.632,2.674854845,,,
06.634,2.862194338,,,
06.636,2.905426528,,,
06.638,2.963069449,,,
06.640,2.703676305,,,
06.642,2.184890016,,,
06.644,1.968729062,,,
06.646,1.651692997,,,
06.648,1.939907602,,,
06.650,2.271354398,,,
06.652,2.804551417,,,
06.654,3.121587482,,,
06.656,2.963069449,,,
06.658,2.732497766,,,
06.660,2.689265575,,,
06.662,2.213711477,,,
06.664,2.069604174,,,
06.666,1.752568109,,,
06.668,2.011961253,,,
06.670,2.213711477,,,
06.672,2.99189091,,,
06.674,2.804551417,,,
06.676,2.934247989,,,
06.678,2.833372877,,,
06.680,2.617211924,,,
06.682,2.199300746,,,
06.684,1.896675411,,,
06.686,1.7958003,,,
06.688,1.997550523,,,
06.690,2.40105097,,,
06.692,2.919837259,,,
06.694,2.660444114,,,
06.696,2.746908496,,,
06.698,2.847783608,,,
06.700,2.631622654,,,
06.702,2.141657825,,,
06.704,2.242532937,,,
06.706,2.228122207,,,
06.708,2.689265575,,,
06.710,3.525087929,,,
06.712,3.395391357,,,
06.714,3.813302534,,,
06.716,3.942999106,,,
06.718,4.115927869,,,
06.720,3.770070343,,,
06.722,3.510677199,,,
06.724,3.092766022,,,
06.726,2.948658719,,,
06.728,3.063944561,,,
06.730,2.876605068,,,
06.732,3.035123101,,,
06.734,3.035123101,,,
06.736,2.746908496,,,
06.738,2.38664024,,,
06.740,1.954318332,,,
06.742,1.550817885,,,
06.744,1.449942774,,,
06.746,1.421121313,,,
06.748,1.565228616,,,
06.750,1.7958003,,,
06.752,2.501926082,,,
06.754,2.458693891,,,
06.756,2.458693891,,,
06.758,2.300175858,,,
06.760,2.242532937,,,
06.762,1.81021103,,,
06.764,1.521996425,,,
06.766,1.723746648,,,
06.768,2.026371983,,,
06.770,2.300175858,,,
06.772,2.746908496,,,
06.774,3.00630164,,,
06.776,3.092766022,,,
06.778,2.674854845,,,
06.780,2.501926082,,,
06.782,2.069604174,,,
06.784,1.911086142,,,
06.786,2.011961253,,,
06.788,1.939907602,,,
06.790,2.213711477,,,
06.792,2.530747542,,,
06.794,2.804551417,,,
06.796,3.078355291,,,
06.798,2.804551417,,,
06.800,2.545158272,,,
06.802,2.069604174,,,
06.804,2.199300746,,,
06.806,2.040782714,,,
06.808,2.184890016,,,
06.810,2.501926082,,,
06.812,2.847783608,,,
06.814,2.97748018,,,
06.816,2.790140687,,,
06.818,2.631622654,,,
06.820,2.501926082,,,
06.822,2.112836365,,,
06.824,2.098425635,,,
06.826,2.112836365,,,
06.828,2.069604174,,,
06.830,2.660444114,,,
06.832,2.934247989,,,
06.834,3.107176752,,,
06.836,2.790140687,,,
06.838,2.646033384,,,
06.840,2.170479286,,,
06.842,1.83903249,,,
06.844,1.867853951,,,
06.846,1.939907602,,,
06.848,2.040782714,,,
06.850,2.790140687,,,
06.852,3.164819673,,,
06.854,3.107176752,,,
06.856,3.092766022,,,
06.858,2.646033384,,,
06.860,2.026371983,,,
06.862,1.997550523,,,
06.864,1.939907602,,,
06.866,2.127247095,,,
06.868,2.444283161,,,
06.870,2.862194338,,,
06.872,2.775729956,,,
06.874,3.035123101,,,
06.876,3.078355291,,,
06.878,2.790140687,,,
06.880,2.545158272,,,
06.882,2.487515351,,,
06.884,1.867853951,,,
06.886,1.867853951,,,
06.888,2.559569003,,,
06.890,2.919837259,,,
06.892,3.179230403,,,
06.894,3.337748436,,,
06.896,3.00630164,,,
06.898,2.746908496,,,
06.900,2.746908496,,,
06.902,2.573979733,,,
06.904,2.228122207,,,
06.906,2.588390463,,,
06.908,2.573979733,,,
06.910,3.107176752,,,
06.912,3.525087929,,,
06.914,3.726838153,,,
06.916,3.56832012,,,
06.918,3.481855738,,,
06.920,2.631622654,,,
06.922,2.516336812,,,
06.924,2.617211924,,,
06.926,2.862194338,,,
06.928,2.703676305,,,
06.930,3.337748436,,,
06.932,3.625963041,,,
06.934,3.899766915,,,
06.936,3.856534725,,,
06.938,3.712427422,,,
06.940,3.164819673,,,
06.942,3.107176752,,,
06.944,3.02071237,,,
06.946,3.00630164,,,
06.948,3.453034278,,,
06.950,3.611552311,,,
06.952,3.770070343,,,
06.954,3.971820567,,,
06.956,3.770070343,,,
06.958,3.640373771,,,
06.960,3.294516245,,,
06.962,2.963069449,,,
06.964,2.761319226,,,
06.966,2.919837259,,,
06.968,3.885356185,,,
06.970,3.942999106,,,
06.972,4.015052757,,,
06.974,3.683605962,,,
06.976,3.726838153,,,
06.978,3.453034278,,,
06.980,3.049533831,,,
06.982,2.99189091,,,
06.984,2.934247989,,,
06.986,3.00630164,,,
06.988,3.193641133,,,
06.990,3.481855738,,,
06.992,3.683605962,,,
06.994,3.56832012,,,
06.996,3.251284054,,,
06.998,2.919837259,,,
07.000,2.300175858,,,
07.002,2.156068556,,,
07.004,2.328997319,,,
07.006,2.487515351,,,
07.008,2.746908496,,,
07.010,2.963069449,,,
07.012,3.121587482,,,
07.014,3.107176752,,,
07.016,2.804551417,,,
07.018,2.631622654,,,
07.020,2.213711477,,,
07.022,2.271354398,,,
07.024,2.127247095,,,
07.026,2.343408049,,,
07.028,2.516336812,,,
07.030,2.876605068,,,
07.032,3.150408943,,,
07.034,2.905426528,,,
07.036,2.732497766,,,
07.038,2.674854845,,,
07.040,2.170479286,,,
07.042,2.256943667,,,
07.044,2.040782714,,,
07.046,1.853443221,,,
07.048,2.343408049,,,
07.050,2.761319226,,,
07.052,3.063944561,,,
07.054,2.775729956,,,
07.056,3.063944561,,,
07.058,2.833372877,,,
07.060,1.925496872,,,
07.062,1.622871537,,,
07.064,1.896675411,,,
07.066,2.040782714,,,
07.068,2.545158272,,,
07.070,2.847783608,,,
07.072,3.02071237,,,
07.074,2.891015798,,,
07.076,2.718087035,,,
07.078,2.501926082,,,
07.080,2.746908496,,,
07.082,2.42987243,,,
07.084,2.084014904,,,
07.086,1.911086142,,,
07.088,2.458693891,,,
07.090,2.573979733,,,
07.092,2.775729956,,,
07.094,2.99189091,,,
07.096,3.02071237,,,
07.098,2.357818779,,,
07.100,1.968729062,,,
07.102,1.723746648,,,
07.104,1.81021103,,,
07.106,2.127247095,,,
07.108,2.919837259,,,
07.110,2.862194338,,,
07.112,2.732497766,,,
07.114,3.135998212,,,
07.116,2.97748018,,,
07.118,2.40105097,,,
07.120,2.112836365,,,
07.122,1.781389569,,,
07.124,1.7958003,,,
07.126,1.997550523,,,
07.128,2.602801193,,,
07.130,2.833372877,,,
07.132,2.948658719,,,
07.134,3.078355291,,,
07.136,2.674854845,,,
07.138,2.112836365,,,
07.140,1.954318332,,,
07.142,2.069604174,,,
07.144,2.444283161,,,
07.146,2.011961253,,,
07.148,2.372229509,,,
07.150,2.905426528,,,
07.152,2.99189091,,,
07.154,2.818962147,,,
07.156,2.775729956,,,
07.158,2.213711477,,,
07.160,2.040782714,,,
07.162,2.040782714,,,
07.164,1.997550523,,,
07.166,2.213711477,,,
07.168,2.213711477,,,
07.170,2.703676305,,,
07.172,2.97748018,,,
07.174,3.092766022,,,
07.176,2.775729956,,,
07.178,2.184890016,,,
07.180,1.7958003,,,
07.182,1.507585695,,,
07.184,1.752568109,,,
07.186,2.228122207,,,
07.188,2.847783608,,,
07.190,2.703676305,,,
07.192,2.891015798,,,
07.194,2.99189091,,,
07.196,2.703676305,,,
07.198,2.228122207,,,
07.200,1.896675411,,,
07.202,1.766978839,,,
07.204,1.997550523,,,
07.206,1.925496872,,,
07.208,2.674854845,,,
07.210,2.718087035,,,
07.212,3.092766022,,,
07.214,2.660444114,,,
07.216,2.948658719,,,
07.218,2.314586588,,,
07.220,1.608460806,,,
07.222,1.867853951,,,
07.224,1.925496872,,,
07.226,1.925496872,,,
07.228,2.660444114,,,
07.230,2.97748018,,,
07.232,2.804551417,,,
07.234,2.718087035,,,
07.236,2.617211924,,,
07.238,2.069604174,,,
07.240,1.939907602,,,
07.242,1.651692997,,,
07.244,1.939907602,,,
07.246,2.199300746,,,
07.248,2.473104621,,,
07.250,2.660444114,,,
07.252,2.818962147,,,
07.254,2.559569003,,,
07.256,2.271354398,,,
07.258,2.055193444,,,
07.260,1.81021103,,,
07.262,1.680514458,,,
07.264,1.925496872,,,
07.266,2.055193444,,,
07.268,2.501926082,,,
07.270,2.919837259,,,
07.272,2.804551417,,,
07.274,2.718087035,,,
07.276,2.40105097,,,
07.278,2.084014904,,,
07.280,1.911086142,,,
07.282,1.939907602,,,
07.284,2.084014904,,,
07.286,1.997550523,,,
07.288,2.487515351,,,
07.290,2.775729956,,,
07.292,2.948658719,,,
07.294,2.646033384,,,
07.296,2.156068556,,,
07.298,1.939907602,,,
07.300,1.7958003,,,
07.302,1.925496872,,,
07.304,1.867853951,,,
07.306,2.098425635,,,
07.308,2.617211924,,,
07.310,2.876605068,,,
07.312,3.00630164,,,
07.314,2.746908496,,,
07.316,1.997550523,,,
07.318,1.939907602,,,
07.320,1.680514458,,,
07.322,1.781389569,,,
07.324,2.040782714,,,
07.326,2.314586588,,,
07.328,2.775729956,,,
07.330,2.862194338,,,
07.332,2.746908496,,,
07.334,2.559569003,,,
07.336,2.588390463,,,
07.338,2.141657825,,,
07.340,1.550817885,,,
07.342,1.622871537,,,
07.344,1.997550523,,,
07.346,2.372229509,,,
07.348,2.458693891,,,
07.350,2.703676305,,,
07.352,2.473104621,,,
07.354,2.357818779,,,
07.356,2.156068556,,,
07.358,1.925496872,,,
07.360,1.81021103,,,
07.362,1.911086142,,,
07.364,2.011961253,,,
07.366,2.314586588,,,
07.368,2.516336812,,,
07.370,2.674854845,,,
07.372,2.804551417,,,
07.374,2.790140687,,,
07.376,2.156068556,,,
07.378,1.666103727,,,
07.380,1.579639346,,,
07.382,1.81021103,,,
07.384,1.7958003,,,
07.386,2.444283161,,,
07.388,2.674854845,,,
07.390,2.703676305,,,
07.392,2.42987243,,,
07.394,2.372229509,,,
07.396,1.939907602,,,
07.398,1.622871537,,,
07.400,1.723746648,,,
07.402,1.608460806,,,
07.404,1.752568109,,,
07.406,2.300175858,,,
07.408,2.372229509,,,
07.410,2.573979733,,,
07.412,2.718087035,,,
07.414,2.790140687,,,
07.416,2.228122207,,,
07.418,1.896675411,,,
07.420,1.853443221,,,
07.422,1.723746648,,,
07.424,1.694925188,,,
07.426,2.242532937,,,
07.428,2.847783608,,,
07.430,2.40105097,,,
07.432,2.530747542,,,
07.434,2.357818779,,,
07.436,1.83903249,,,
07.438,1.723746648,,,
07.440,1.406710583,,,
07.442,1.594050076,,,
07.444,1.882264681,,,
07.446,2.328997319,,,
07.448,2.501926082,,,
07.450,2.746908496,,,
07.452,3.00630164,,,
07.454,2.256943667,,,
07.456,1.925496872,,,
07.458,1.882264681,,,
07.460,1.579639346,,,
07.462,1.406710583,,,
07.464,1.680514458,,,
07.466,2.343408049,,,
07.468,2.444283161,,,
07.470,2.631622654,,,
07.472,2.487515351,,,
07.474,2.314586588,,,
07.476,1.781389569,,,
07.478,1.478764234,,,
07.480,1.521996425,,,
07.482,1.579639346,,,
07.484,1.565228616,,,
07.486,2.199300746,,,
07.488,2.617211924,,,
07.490,2.876605068,,,
07.492,2.790140687,,,
07.494,2.098425635,,,
07.496,1.983139793,,,
07.498,1.983139793,,,
07.500,1.23378182,,,
07.502,1.421121313,,,
07.504,1.83903249,,,
07.506,2.285765128,,,
07.508,2.559569003,,,
07.510,2.545158272,,,
07.512,2.357818779,,,
07.514,2.300175858,,,
07.516,1.680514458,,,
07.518,1.478764234,,,
07.520,1.478764234,,,
07.522,1.680514458,,,
07.524,1.882264681,,,
07.526,2.530747542,,,
07.528,2.458693891,,,
07.530,2.199300746,,,
07.532,2.357818779,,,
07.534,2.228122207,,,
07.536,2.040782714,,,
07.538,1.608460806,,,
07.540,1.81021103,,,
07.542,1.507585695,,,
07.544,1.968729062,,,
07.546,2.242532937,,,
07.548,2.530747542,,,
07.550,2.573979733,,,
07.552,2.314586588,,,
07.554,2.199300746,,,
07.556,1.507585695,,,
07.558,2.055193444,,,
07.560,1.622871537,,,
07.562,1.392299853,,,
07.564,1.449942774,,,
07.566,2.055193444,,,
07.568,2.631622654,,,
07.570,2.660444114,,,
07.572,3.107176752,,,
07.574,2.069604174,,,
07.576,1.752568109,,,
07.578,1.421121313,,,
07.580,1.26260328,,,
07.582,1.738157379,,,
07.584,2.011961253,,,
07.586,2.38664024,,,
07.588,2.545158272,,,
07.590,2.602801193,,,
07.592,2.314586588,,,
07.594,1.968729062,,,
07.596,1.377889122,,,
07.598,1.377889122,,,
07.600,1.363478392,,,
07.602,1.377889122,,,
07.604,1.521996425,,,
07.606,2.588390463,,,
07.608,2.963069449,,,
07.610,2.473104621,,,
07.612,2.256943667,,,
07.614,2.242532937,,,
07.616,1.680514458,,,
07.618,1.521996425,,,
07.620,1.594050076,,,
07.622,1.766978839,,,
07.624,2.199300746,,,
07.626,2.487515351,,,
07.628,2.42987243,,,
07.630,2.516336812,,,
07.632,2.271354398,,,
07.634,1.983139793,,,
07.636,1.666103727,,,
07.638,1.81021103,,,
07.640,2.055193444,,,
07.642,2.098425635,,,
07.644,2.300175858,,,
07.646,2.545158272,,,
07.648,2.876605068,,,
07.650,2.790140687,,,
07.652,2.487515351,,,
07.654,2.328997319,,,
07.656,1.853443221,,,
07.658,1.594050076,,,
07.660,1.392299853,,,
07.662,1.81021103,,,
07.664,2.328997319,,,
07.666,2.646033384,,,
07.668,2.746908496,,,
07.670,2.790140687,,,
07.672,2.271354398,,,
07.674,1.896675411,,,
07.676,1.7958003,,,
07.678,1.622871537,,,
07.680,1.594050076,,,
07.682,1.637282267,,,
07.684,1.550817885,,,
07.686,2.4154617,,,
07.688,2.862194338,,,
07.690,2.617211924,,,
07.692,2.646033384,,,
07.694,1.82462176,,,
07.696,1.320246201,,,
07.698,1.291424741,,,
07.700,1.363478392,,,
07.702,1.81021103,,,
07.704,2.199300746,,,
07.706,2.228122207,,,
07.708,2.199300746,,,
07.710,2.343408049,,,
07.712,2.156068556,,,
07.714,1.637282267,,,
07.716,1.738157379,,,
07.718,1.82462176,,,
07.720,1.752568109,,,
07.722,1.637282267,,,
07.724,1.709335918,,,
07.726,2.300175858,,,
07.728,2.4154617,,,
07.730,2.357818779,,,
07.732,1.983139793,,,
07.734,1.680514458,,,
07.736,1.521996425,,,
07.738,1.449942774,,,
07.740,1.464353504,,,
07.742,1.666103727,,,
07.744,1.853443221,,,
07.746,2.300175858,,,
07.748,2.703676305,,,
07.750,2.501926082,,,
07.752,2.4154617,,,
07.754,1.7958003,,,
07.756,1.637282267,,,
07.758,1.21937109,,,
07.760,1.26260328,,,
07.762,1.493174964,,,
07.764,1.939907602,,,
07.766,2.170479286,,,
07.768,2.199300746,,,
07.770,2.473104621,,,
07.772,2.127247095,,,
07.774,1.954318332,,,
07.776,1.435532043,,,
07.778,1.190549629,,,
07.780,1.464353504,,,
07.782,1.694925188,,,
07.784,2.473104621,,,
07.786,2.847783608,,,
07.788,2.689265575,,,
07.790,3.150408943,,,
07.792,3.121587482,,,
07.794,2.602801193,,,
07.796,2.862194338,,,
07.798,2.790140687,,,
07.800,2.919837259,,,
07.802,3.107176752,,,
07.804,2.948658719,,,
07.806,3.265694785,,,
07.808,2.99189091,,,
07.810,2.602801193,,,
07.812,2.256943667,,,
07.814,1.709335918,,,
07.816,1.421121313,,,
07.818,1.26260328,,,
07.820,1.24819255,,,
07.822,1.363478392,,,
07.824,1.349067662,,,
07.826,1.550817885,,,
07.828,1.536407155,,,
07.830,1.651692997,,,
07.832,1.277014011,,,
07.834,1.23378182,,,
07.836,1.161728169,,,
07.838,1.075263787,,,
07.840,1.147317438,,,
07.842,1.594050076,,,
07.844,1.882264681,,,
07.846,2.242532937,,,
07.848,2.184890016,,,
07.850,2.141657825,,,
07.852,2.184890016,,,
07.854,1.651692997,,,
07.856,1.349067662,,,
07.858,1.176138899,,,
07.860,1.651692997,,,
07.862,1.666103727,,,
07.864,1.666103727,,,
07.866,2.026371983,,,
07.868,2.40105097,,,
07.870,2.444283161,,,
07.872,2.156068556,,,
07.874,1.594050076,,,
07.876,1.291424741,,,
07.878,1.305835471,,,
07.880,1.392299853,,,
07.882,1.7958003,,,
07.884,2.242532937,,,
07.886,2.300175858,,,
07.888,2.573979733,,,
07.890,2.213711477,,,
07.892,1.968729062,,,
07.894,1.666103727,,,
07.896,1.363478392,,,
07.898,1.435532043,,,
07.900,1.594050076,,,
07.902,1.954318332,,,
07.904,2.4154617,,,
07.906,2.285765128,,,
07.908,1.911086142,,,
07.910,2.156068556,,,
07.912,1.882264681,,,
07.914,1.550817885,,,
07.916,1.349067662,,,
07.918,1.651692997,,,
07.920,2.011961253,,,
07.922,1.781389569,,,
07.924,2.112836365,,,
07.926,2.545158272,,,
07.928,2.372229509,,,
07.930,2.228122207,,,
07.932,2.026371983,,,
07.934,1.565228616,,,
07.936,1.406710583,,,
07.938,1.377889122,,,
07.940,1.521996425,,,
07.942,1.983139793,,,
07.944,2.38664024,,,
07.946,2.516336812,,,
07.948,2.674854845,,,
07.950,2.4154617,,,
07.952,1.911086142,,,
07.954,1.464353504,,,
07.956,1.666103727,,,
07.958,1.752568109,,,
07.960,1.579639346,,,
07.962,2.184890016,,,
07.964,2.674854845,,,
07.966,2.862194338,,,
07.968,2.847783608,,,
07.970,2.42987243,,,
07.972,1.81021103,,,
07.974,1.694925188,,,
07.976,1.911086142,,,
07.978,1.896675411,,,
07.980,1.680514458,,,
07.982,2.127247095,,,
07.984,2.516336812,,,
07.986,2.818962147,,,
07.988,2.804551417,,,
07.990,2.790140687,,,
07.992,2.357818779,,,
07.994,1.997550523,,,
07.996,2.084014904,,,
07.998,2.285765128,,,
08.000,2.156068556,,,
08.002,2.588390463,,,
08.004,2.833372877,,,
08.006,2.97748018,,,
08.008,3.337748436,,,
08.010,3.049533831,,,
08.012,2.746908496,,,
08.014,2.228122207,,,
08.016,2.213711477,,,
08.018,2.314586588,,,
08.020,2.473104621,,,
08.022,3.063944561,,,
08.024,3.683605962,,,
08.026,3.265694785,,,
08.028,3.121587482,,,
08.030,3.56832012,,,
08.032,2.963069449,,,
08.034,2.804551417,,,
08.036,2.213711477,,,
08.038,2.516336812,,,
08.040,2.847783608,,,
08.042,3.049533831,,,
08.044,3.222462594,,,
08.046,3.438623548,,,
08.048,3.496266469,,,
08.050,3.251284054,,,
08.052,3.208051864,,,
08.054,2.573979733,,,
08.056,1.968729062,,,
08.058,2.314586588,,,
08.060,2.905426528,,,
08.062,2.790140687,,,
08.064,3.092766022,,,
08.066,3.294516245,,,
08.068,2.905426528,,,
08.070,2.847783608,,,
08.072,2.646033384,,,
08.074,2.069604174,,,
08.076,1.781389569,,,
08.078,1.853443221,,,
08.080,1.968729062,,,
08.082,2.646033384,,,
08.084,2.97748018,,,
08.086,3.063944561,,,
08.088,2.444283161,,,
08.090,2.4154617,,,
08.092,1.939907602,,,
08.094,1.550817885,,,
08.096,1.377889122,,,
08.098,1.7958003,,,
08.100,2.127247095,,,
08.102,2.4154617,,,
08.104,2.444283161,,,
08.106,2.617211924,,,
08.108,2.501926082,,,
08.110,2.184890016,,,
08.112,1.709335918,,,
08.114,1.536407155,,,
08.116,1.23378182,,,
08.118,1.464353504,,,
08.120,1.680514458,,,
08.122,1.83903249,,,
08.124,2.156068556,,,
08.126,2.891015798,,,
08.128,2.314586588,,,
08.130,1.81021103,,,
08.132,1.507585695,,,
08.134,1.26260328,,,
08.136,1.392299853,,,
08.138,1.637282267,,,
08.140,1.392299853,,,
08.142,1.622871537,,,
08.144,1.997550523,,,
08.146,2.328997319,,,
08.148,2.444283161,,,
08.150,2.617211924,,,
08.152,1.694925188,,,
08.154,1.594050076,,,
08.156,1.277014011,,,
08.158,1.478764234,,,
08.160,2.055193444,,,
08.162,2.242532937,,,
08.164,2.300175858,,,
08.166,2.300175858,,,
08.168,2.055193444,,,
08.170,2.127247095,,,
08.172,1.449942774,,,
08.174,1.349067662,,,
08.176,1.507585695,,,
08.178,1.579639346,,,
08.180,1.536407155,,,
08.182,1.968729062,,,
08.184,2.4154617,,,
08.186,2.573979733,,,
08.188,2.112836365,,,
08.190,1.81021103,,,
08.192,1.493174964,,,
08.194,1.363478392,,,
08.196,1.21937109,,,
08.198,1.594050076,,,
08.200,1.651692997,,,
08.202,2.213711477,,,
08.204,2.372229509,,,
08.206,2.069604174,,,
08.208,2.228122207,,,
08.210,1.853443221,,,
08.212,1.406710583,,,
08.214,1.291424741,,,
08.216,1.349067662,,,
08.218,1.464353504,,,
08.220,1.766978839,,,
08.222,2.098425635,,,
08.224,2.285765128,,,
08.226,2.271354398,,,
08.228,2.487515351,,,
08.230,1.882264681,,,
08.232,1.320246201,,,
08.234,1.435532043,,,
08.236,1.421121313,,,
08.238,1.493174964,,,
08.240,1.694925188,,,
08.242,2.011961253,,,
08.244,2.098425635,,,
08.246,2.112836365,,,
08.248,2.199300746,,,
08.250,1.896675411,,,
08.252,1.176138899,,,
08.254,1.060853057,,,
08.256,1.521996425,,,
08.258,1.521996425,,,
08.260,1.781389569,,,
08.262,1.983139793,,,
08.264,2.343408049,,,
08.266,2.357818779,,,
08.268,2.069604174,,,
08.270,1.651692997,,,
08.272,1.579639346,,,
08.274,1.147317438,,,
08.276,0.787049182,,,
08.278,1.161728169,,,
08.280,1.954318332,,,
08.282,2.199300746,,,
08.284,2.213711477,,,
08.286,2.156068556,,,
08.288,1.954318332,,,
08.290,1.666103727,,,
08.292,1.579639346,,,
08.294,1.305835471,,,
08.296,1.089674517,,,
08.298,1.21937109,,,
08.300,1.766978839,,,
08.302,2.357818779,,,
08.304,2.271354398,,,
08.306,2.026371983,,,
08.308,2.228122207,,,
08.310,1.493174964,,,
08.312,1.392299853,,,
08.314,1.349067662,,,
08.316,1.21937109,,,
08.318,1.435532043,,,
08.320,1.882264681,,,
08.322,1.925496872,,,
08.324,1.954318332,,,
08.326,2.011961253,,,
08.328,2.055193444,,,
08.330,1.507585695,,,
08.332,1.190549629,,,
08.334,1.032031597,,,
08.336,1.320246201,,,
08.338,1.363478392,,,
08.340,1.781389569,,,
08.342,1.939907602,,,
08.344,2.199300746,,,
08.346,2.170479286,,,
08.348,1.983139793,,,
08.350,1.493174964,,,
08.352,1.21937109,,,
08.354,1.190549629,,,
08.356,0.988799406,,,
08.358,1.291424741,,,
08.360,1.723746648,,,
08.362,2.112836365,,,
08.364,2.242532937,,,
08.366,2.141657825,,,
08.368,1.853443221,,,
08.370,1.377889122,,,
08.372,1.507585695,,,
08.374,1.132906708,,,
08.376,1.190549629,,,
08.378,1.363478392,,,
08.380,1.651692997,,,
08.382,1.997550523,,,
08.384,1.83903249,,,
08.386,1.997550523,,,
08.388,1.709335918,,,
08.390,1.565228616,,,
08.392,1.21937109,,,
08.394,1.23378182,,,
08.396,1.320246201,,,
08.398,1.694925188,,,
08.400,2.069604174,,,
08.402,2.213711477,,,
08.404,2.170479286,,,
08.406,1.954318332,,,
08.408,1.738157379,,,
08.410,1.83903249,,,
08.412,1.132906708,,,
08.414,0.916745755,,,
08.416,1.118495978,,,
08.418,1.176138899,,,
08.420,1.752568109,,,
08.422,2.213711477,,,
08.424,2.141657825,,,
08.426,1.939907602,,,
08.428,1.507585695,,,
08.430,1.291424741,,,
08.432,1.190549629,,,
08.434,1.406710583,,,
08.436,1.666103727,,,
08.438,1.421121313,,,
08.440,1.853443221,,,
08.442,2.026371983,,,
08.444,2.141657825,,,
08.446,2.011961253,,,
08.448,1.363478392,,,
08.450,1.161728169,,,
08.452,1.032031597,,,
08.454,1.089674517,,,
08.456,1.291424741,,,
08.458,1.277014011,,,
08.460,1.925496872,,,
08.462,2.242532937,,,
08.464,2.314586588,,,
08.466,2.300175858,,,
08.468,2.069604174,,,
08.470,1.349067662,,,
08.472,1.104085248,,,
08.474,1.032031597,,,
08.476,1.075263787,,,
08.478,1.392299853,,,
08.480,1.694925188,,,
08.482,2.4154617,,,
08.484,2.170479286,,,
08.486,1.666103727,,,
08.488,1.377889122,,,
08.490,1.26260328,,,
08.492,0.729406261,,,
08.494,1.190549629,,,
08.496,1.176138899,,,
08.498,1.666103727,,,
08.500,2.069604174,,,
08.502,1.997550523,,,
08.504,1.853443221,,,
08.506,1.925496872,,,
08.508,2.069604174,,,
08.510,1.579639346,,,
08.512,0.931156485,,,
08.514,0.959977945,,,
08.516,1.161728169,,,
08.518,1.550817885,,,
08.520,1.853443221,,,
08.522,2.098425635,,,
08.524,1.766978839,,,
08.526,1.766978839,,,
08.528,1.464353504,,,
08.530,1.147317438,,,
08.532,1.017620866,,,
08.534,1.147317438,,,
08.536,1.104085248,,,
08.538,1.24819255,,,
08.540,1.781389569,,,
08.542,2.372229509,,,
08.544,2.256943667,,,
08.546,2.242532937,,,
08.548,1.464353504,,,
08.550,1.392299853,,,
08.552,1.204960359,,,
08.554,0.945567215,,,
08.556,1.23378182,,,
08.558,1.709335918,,,
08.560,1.911086142,,,
08.562,1.983139793,,,
08.564,2.069604174,,,
08.566,1.666103727,,,
08.568,1.608460806,,,
08.570,1.507585695,,,
08.572,1.003210136,,,
08.574,1.003210136,,,
08.576,1.334656932,,,
08.578,1.363478392,,,
08.580,1.738157379,,,
08.582,2.170479286,,,
08.584,2.271354398,,,
08.586,2.141657825,,,
08.588,1.997550523,,,
08.590,1.118495978,,,
08.592,0.787049182,,,
08.594,1.23378182,,,
08.596,1.190549629,,,
08.598,1.349067662,,,
08.600,1.694925188,,,
08.602,1.997550523,,,
08.604,1.968729062,,,
08.606,1.997550523,,,
08.608,1.651692997,,,
08.610,1.147317438,,,
08.612,1.046442327,,,
08.614,1.24819255,,,
08.616,1.435532043,,,
08.618,1.594050076,,,
08.620,1.82462176,,,
08.622,2.314586588,,,
08.624,2.170479286,,,
08.626,1.7958003,,,
08.628,1.334656932,,,
08.630,1.176138899,,,
08.632,1.478764234,,,
08.634,1.046442327,,,
08.636,1.190549629,,,
08.638,1.521996425,,,
08.640,1.911086142,,,
08.642,1.925496872,,,
08.644,1.997550523,,,
08.646,1.83903249,,,
08.648,1.435532043,,,
08.650,1.147317438,,,
08.652,1.032031597,,,
08.654,1.363478392,,,
08.656,1.680514458,,,
08.658,1.882264681,,,
08.660,1.882264681,,,
08.662,2.458693891,,,
08.664,2.011961253,,,
08.666,1.550817885,,,
08.668,1.320246201,,,
08.670,1.204960359,,,
08.672,1.204960359,,,
08.674,1.320246201,,,
08.676,1.464353504,,,
08.678,1.579639346,,,
08.680,1.882264681,,,
08.682,1.997550523,,,
08.684,1.896675411,,,
08.686,1.82462176,,,
08.688,1.464353504,,,
08.690,1.421121313,,,
08.692,1.147317438,,,
08.694,1.204960359,,,
08.696,1.521996425,,,
08.698,1.680514458,,,
08.700,1.954318332,,,
08.702,2.458693891,,,
08.704,2.184890016,,,
08.706,1.781389569,,,
08.708,1.781389569,,,
08.710,1.21937109,,,
08.712,1.060853057,,,
08.714,1.291424741,,,
08.716,1.334656932,,,
08.718,2.112836365,,,
08.720,2.300175858,,,
08.722,2.38664024,,,
08.724,2.458693891,,,
08.726,2.141657825,,,
08.728,1.26260328,,,
08.730,1.291424741,,,
08.732,1.507585695,,,
08.734,1.622871537,,,
08.736,1.637282267,,,
08.738,1.81021103,,,
08.740,2.372229509,,,
08.742,2.328997319,,,
08.744,1.954318332,,,
08.746,1.781389569,,,
08.748,1.363478392,,,
08.750,0.959977945,,,
08.752,1.017620866,,,
08.754,1.449942774,,,
08.756,1.507585695,,,
08.758,1.867853951,,,
08.760,2.098425635,,,
08.762,2.38664024,,,
08.764,2.055193444,,,
08.766,1.579639346,,,
08.768,1.060853057,,,
08.770,1.24819255,,,
08.772,1.349067662,,,
08.774,1.277014011,,,
08.776,1.176138899,,,
08.778,1.723746648,,,
08.780,2.112836365,,,
08.782,2.112836365,,,
08.784,1.766978839,,,
08.786,1.622871537,,,
08.788,1.536407155,,,
08.790,1.104085248,,,
08.792,0.873513564,,,
08.794,1.507585695,,,
08.796,1.550817885,,,
08.798,1.723746648,,,
08.800,1.968729062,,,
08.802,1.7958003,,,
08.804,1.781389569,,,
08.806,1.680514458,,,
08.808,1.421121313,,,
08.810,1.161728169,,,
08.812,1.089674517,,,
08.814,1.118495978,,,
08.816,1.392299853,,,
08.818,1.867853951,,,
08.820,2.156068556,,,
08.822,1.896675411,,,
08.824,1.82462176,,,
08.826,1.82462176,,,
08.828,1.147317438,,,
08.830,1.291424741,,,
08.832,1.017620866,,,
08.834,1.24819255,,,
08.836,1.464353504,,,
08.838,1.911086142,,,
08.840,1.997550523,,,
08.842,1.983139793,,,
08.844,2.300175858,,,
08.846,1.608460806,,,
08.848,1.147317438,,,
08.850,1.21937109,,,
08.852,1.089674517,,,
08.854,1.392299853,,,
08.856,1.997550523,,,
08.858,2.328997319,,,
08.860,2.617211924,,,
08.862,2.862194338,,,
08.864,2.862194338,,,
08.866,2.761319226,,,
08.868,2.790140687,,,
08.870,2.732497766,,,
08.872,2.674854845,,,
08.874,2.473104621,,,
08.876,2.631622654,,,
08.878,2.847783608,,,
08.880,2.530747542,,,
08.882,2.141657825,,,
08.884,1.81021103,,,
08.886,1.464353504,,,
08.888,1.046442327,,,
08.890,0.686174071,,,
08.892,0.700584801,,,
08.894,0.585298959,,,
08.896,1.089674517,,,
08.898,1.320246201,,,
08.900,1.550817885,,,
08.902,1.449942774,,,
08.904,1.204960359,,,
08.906,1.003210136,,,
08.908,0.772638452,,,
08.910,0.873513564,,,
08.912,1.132906708,,,
08.914,1.406710583,,,
08.916,1.666103727,,,
08.918,2.055193444,,,
08.920,2.069604174,,,
08.922,1.752568109,,,
08.924,1.680514458,,,
08.926,1.651692997,,,
08.928,1.21937109,,,
08.930,1.017620866,,,
08.932,1.21937109,,,
08.934,1.392299853,,,
08.936,1.550817885,,,
08.938,1.954318332,,,
08.940,2.213711477,,,
08.942,2.055193444,,,
08.944,1.853443221,,,
08.946,1.277014011,,,
08.948,1.046442327,,,
08.950,1.075263787,,,
08.952,1.521996425,,,
08.954,1.637282267,,,
08.956,2.011961253,,,
08.958,2.084014904,,,
08.960,2.199300746,,,
08.962,2.055193444,,,
08.964,1.983139793,,,
08.966,1.594050076,,,
08.968,1.392299853,,,
08.970,1.132906708,,,
08.972,1.291424741,,,
08.974,1.896675411,,,
08.976,2.242532937,,,
08.978,2.458693891,,,
08.980,2.660444114,,,
08.982,2.084014904,,,
08.984,2.170479286,,,
08.986,1.954318332,,,
08.988,1.954318332,,,
08.990,2.141657825,,,
08.992,2.328997319,,,
08.994,2.314586588,,,
08.996,2.473104621,,,
08.998,2.487515351,,,
09.000,2.516336812,,,
09.002,2.228122207,,,
09.004,2.242532937,,,
09.006,2.098425635,,,
09.008,2.055193444,,,
09.010,2.069604174,,,
09.012,2.256943667,,,
09.014,2.38664024,,,
09.016,2.473104621,,,
09.018,2.473104621,,,
09.020,2.40105097,,,
09.022,2.487515351,,,
09.024,2.343408049,,,
09.026,1.81021103,,,
09.028,1.464353504,,,
09.030,1.579639346,,,
09.032,1.911086142,,,
09.034,1.983139793,,,
09.036,2.790140687,,,
09.038,2.833372877,,,
09.040,2.689265575,,,
09.042,2.444283161,,,
09.044,2.42987243,,,
09.046,2.098425635,,,
09.048,1.954318332,,,
09.050,1.666103727,,,
09.052,1.7958003,,,
09.054,2.141657825,,,
09.056,2.602801193,,,
09.058,2.775729956,,,
09.060,2.919837259,,,
09.062,3.164819673,,,
09.064,2.559569003,,,
09.066,2.112836365,,,
09.068,1.968729062,,,
09.070,2.501926082,,,
09.072,2.372229509,,,
09.074,2.732497766,,,
09.076,2.847783608,,,
09.078,3.366569896,,,
09.080,3.784481074,,,
09.082,3.323337706,,,
09.084,2.97748018,,,
09.086,2.530747542,,,
09.088,2.545158272,,,
09.090,2.40105097,,,
09.092,2.674854845,,,
09.094,3.092766022,,,
09.096,3.698016692,,,
09.098,3.481855738,,,
09.100,3.625963041,,,
09.102,3.625963041,,,
09.104,2.876605068,,,
09.106,2.660444114,,,
09.108,2.804551417,,,
09.110,2.631622654,,,
09.112,2.718087035,,,
09.114,3.280105515,,,
09.116,3.510677199,,,
09.118,3.640373771,,,
09.120,3.438623548,,,
09.122,3.683605962,,,
09.124,3.265694785,,,
09.126,2.38664024,,,
09.128,2.588390463,,,
09.130,2.530747542,,,
09.132,2.631622654,,,
09.134,2.847783608,,,
09.136,3.424212817,,,
09.138,3.236873324,,,
09.140,3.208051864,,,
09.142,3.121587482,,,
09.144,2.617211924,,,
09.146,2.141657825,,,
09.148,2.040782714,,,
09.150,2.040782714,,,
09.152,2.228122207,,,
09.154,2.588390463,,,
09.156,2.934247989,,,
09.158,2.934247989,,,
09.160,2.99189091,,,
09.162,2.919837259,,,
09.164,2.343408049,,,
09.166,2.170479286,,,
09.168,1.738157379,,,
09.170,1.637282267,,,
09.172,1.680514458,,,
09.174,2.170479286,,,
09.176,2.42987243,,,
09.178,2.703676305,,,
09.180,2.487515351,,,
09.182,2.38664024,,,
09.184,2.38664024,,,
09.186,1.680514458,,,
09.188,1.550817885,,,
09.190,1.305835471,,,
09.192,1.82462176,,,
09.194,2.213711477,,,
09.196,2.573979733,,,
09.198,2.818962147,,,
09.200,2.473104621,,,
09.202,2.256943667,,,
09.204,1.83903249,,,
09.206,1.752568109,,,
09.208,1.594050076,,,
09.210,1.392299853,,,
09.212,2.026371983,,,
09.214,2.127247095,,,
09.216,2.170479286,,,
09.218,2.242532937,,,
09.220,2.501926082,,,
09.222,2.300175858,,,
09.224,1.896675411,,,
09.226,1.536407155,,,
09.228,1.579639346,,,
09.230,1.493174964,,,
09.232,1.666103727,,,
09.234,2.213711477,,,
09.236,2.40105097,,,
09.238,2.602801193,,,
09.240,2.42987243,,,
09.242,2.573979733,,,
09.244,2.156068556,,,
09.246,1.622871537,,,
09.248,1.507585695,,,
09.250,1.766978839,,,
09.252,1.493174964,,,
09.254,2.170479286,,,
09.256,2.343408049,,,
09.258,2.646033384,,,
09.260,2.501926082,,,
09.262,2.026371983,,,
09.264,1.651692997,,,
09.266,1.738157379,,,
09.268,1.723746648,,,
09.270,1.709335918,,,
09.272,1.968729062,,,
09.274,2.170479286,,,
09.276,2.718087035,,,
09.278,2.674854845,,,
09.280,2.213711477,,,
09.282,2.314586588,,,
09.284,1.896675411,,,
09.286,1.579639346,,,
09.288,1.363478392,,,
09.290,1.507585695,,,
09.292,1.781389569,,,
09.294,2.156068556,,,
09.296,2.559569003,,,
09.298,2.775729956,,,
09.300,2.487515351,,,
09.302,2.285765128,,,
09.304,1.954318332,,,
09.306,1.853443221,,,
09.308,1.709335918,,,
09.310,1.781389569,,,
09.312,1.896675411,,,
09.314,2.084014904,,,
09.316,2.372229509,,,
09.318,2.40105097,,,
09.320,2.328997319,,,
09.322,2.285765128,,,
09.324,1.911086142,,,
09.326,1.536407155,,,
09.328,1.507585695,,,
09.330,1.536407155,,,
09.332,1.709335918,,,
09.334,2.487515351,,,
09.336,2.588390463,,,
09.338,2.746908496,,,
09.340,2.458693891,,,
09.342,2.271354398,,,
09.344,1.911086142,,,
09.346,1.507585695,,,
09.348,1.24819255,,,
09.350,1.666103727,,,
09.352,1.478764234,,,
09.354,2.141657825,,,
09.356,2.473104621,,,
09.358,2.588390463,,,
09.360,2.42987243,,,
09.362,2.011961253,,,
09.364,1.579639346,,,
09.366,1.723746648,,,
09.368,1.781389569,,,
09.370,1.81021103,,,
09.372,1.83903249,,,
09.374,2.271354398,,,
09.376,2.357818779,,,
09.378,2.357818779,,,
09.380,2.300175858,,,
09.382,2.242532937,,,
09.384,1.622871537,,,
09.386,1.435532043,,,
09.388,1.377889122,,,
09.390,1.637282267,,,
09.392,1.766978839,,,
09.394,2.357818779,,,
09.396,2.473104621,,,
09.398,2.372229509,,,
09.400,2.343408049,,,
09.402,1.939907602,,,
09.404,1.579639346,,,
09.406,1.435532043,,,
09.408,1.579639346,,,
09.410,1.680514458,,,
09.412,1.954318332,,,
09.414,2.256943667,,,
09.416,2.42987243,,,
09.418,2.732497766,,,
09.420,2.473104621,,,
09.422,2.026371983,,,
09.424,1.651692997,,,
09.426,1.190549629,,,
09.428,1.377889122,,,
09.430,1.536407155,,,
09.432,2.055193444,,,
09.434,2.184890016,,,
09.436,2.328997319,,,
09.438,2.746908496,,,
09.440,2.343408049,,,
09.442,1.925496872,,,
09.444,1.83903249,,,
09.446,1.594050076,,,
09.448,1.536407155,,,
09.450,1.666103727,,,
09.452,1.867853951,,,
09.454,2.42987243,,,
09.456,2.199300746,,,
09.458,2.573979733,,,
09.460,2.285765128,,,
09.462,1.896675411,,,
09.464,1.622871537,,,
09.466,1.493174964,,,
09.468,1.421121313,,,
09.470,1.709335918,,,
09.472,1.867853951,,,
09.474,2.559569003,,,
09.476,2.588390463,,,
09.478,2.545158272,,,
09.480,2.141657825,,,
09.482,1.781389569,,,
09.484,1.694925188,,,
09.486,1.666103727,,,
09.488,1.435532043,,,
09.490,1.637282267,,,
09.492,2.127247095,,,
09.494,2.847783608,,,
09.496,2.674854845,,,
09.498,2.069604174,,,
09.500,2.127247095,,,