Time (s),Signal (V),Peak Time (s) ,Sample #,Type
00.000,2.180459245,00.352,176,N
00.002,2.225804082,00.586,293,t
00.004,2.452528266,01.190,595,N
00.006,2.482758158,01.418,709,t
00.008,2.407183429,02.002,1001,N
00.010,2.376953538,02.232,1116,t
00.012,2.346723647,02.754,1377,N
00.014,2.256033973,02.972,1486,t
00.016,2.104884517,03.472,1736,N
00.018,2.104884517,03.698,1849,t
00.020,2.029309789,04.182,2091,N
00.022,2.180459245,04.406,2203,t
00.024,2.422298375,04.918,2459,N
00.026,2.497873103,05.132,2566,t
00.028,2.512988049,05.720,2860,N
00.030,2.482758158,05.946,2973,t
00.032,2.30137881,06.636,3318,N
00.034,2.1653443,06.866,3433,t
00.036,2.150229354,07.492,3746,N
00.038,2.180459245,07.722,3861,t
00.040,2.240919028,,,
00.042,2.256033973,,,
00.044,2.376953538,,,
00.046,2.512988049,,,
00.048,2.54321794,,,
00.050,2.407183429,,,
00.052,2.30137881,,,
00.054,1.953735061,,,
00.056,2.05953968,,,
00.058,2.180459245,,,
00.060,2.180459245,,,
00.062,2.346723647,,,
00.064,2.437413321,,,
00.066,2.467643212,,,
00.068,2.452528266,,,
00.070,2.452528266,,,
00.072,2.225804082,,,
00.074,2.1653443,,,
00.076,2.119999463,,,
00.078,2.029309789,,,
00.080,2.089769571,,,
00.082,2.346723647,,,
00.084,2.452528266,,,
00.086,2.452528266,,,
00.088,2.376953538,,,
00.090,2.240919028,,,
00.092,2.225804082,,,
00.094,2.240919028,,,
00.096,2.119999463,,,
00.098,2.05953968,,,
00.100,2.150229354,,,
00.102,2.361838593,,,
00.104,2.482758158,,,
00.106,2.482758158,,,
00.108,2.452528266,,,
00.110,2.361838593,,,
00.112,2.240919028,,,
00.114,2.119999463,,,
00.116,2.05953968,,,
00.118,2.150229354,,,
00.120,2.150229354,,,
00.122,2.286263864,,,
00.124,2.346723647,,,
00.126,2.316493756,,,
00.128,2.376953538,,,
00.130,2.392068484,,,
00.132,2.195574191,,,
00.134,2.150229354,,,
00.136,2.104884517,,,
00.138,2.089769571,,,
00.140,2.104884517,,,
00.142,2.331608701,,,
00.144,2.437413321,,,
00.146,2.497873103,,,
00.148,2.452528266,,,
00.150,2.331608701,,,
00.152,2.180459245,,,
00.154,2.210689136,,,
00.156,2.119999463,,,
00.158,2.119999463,,,
00.160,2.225804082,,,
00.162,2.437413321,,,
00.164,2.618792668,,,
00.166,2.649022559,,,
00.168,2.482758158,,,
00.170,2.376953538,,,
00.172,2.30137881,,,
00.174,2.256033973,,,
00.176,2.044424735,,,
00.178,2.256033973,,,
00.180,2.331608701,,,
00.182,2.528102994,,,
00.184,2.588562777,,,
00.186,2.558332886,,,
00.188,2.528102994,,,
00.190,2.528102994,,,
00.192,2.316493756,,,
00.194,2.271148919,,,
00.196,2.376953538,,,
00.198,2.316493756,,,
00.200,2.422298375,,,
00.202,2.664137505,,,
00.204,2.709482342,,,
00.206,2.664137505,,,
00.208,2.452528266,,,
00.210,2.437413321,,,
00.212,2.30137881,,,
00.214,2.240919028,,,
00.216,2.135114408,,,
00.218,2.135114408,,,
00.220,2.286263864,,,
00.222,2.528102994,,,
00.224,2.528102994,,,
00.226,2.558332886,,,
00.228,2.407183429,,,
00.230,2.331608701,,,
00.232,2.195574191,,,
00.234,2.029309789,,,
00.236,2.05953968,,,
00.238,2.119999463,,,
00.240,2.256033973,,,
00.242,2.30137881,,,
00.244,2.286263864,,,
00.246,2.452528266,,,
00.248,2.422298375,,,
00.250,2.286263864,,,
00.252,2.119999463,,,
00.254,2.014194843,,,
00.256,1.968850007,,,
00.258,2.029309789,,,
00.260,2.135114408,,,
00.262,2.331608701,,,
00.264,2.331608701,,,
00.266,2.361838593,,,
00.268,2.361838593,,,
00.270,2.271148919,,,
00.272,2.104884517,,,
00.274,2.05953968,,,
00.276,2.074654626,,,
00.278,2.104884517,,,
00.280,2.150229354,,,
00.282,2.240919028,,,
00.284,2.422298375,,,
00.286,2.452528266,,,
00.288,2.346723647,,,
00.290,2.286263864,,,
00.292,2.074654626,,,
00.294,1.92350517,,,
00.296,1.92350517,,,
00.298,1.938620115,,,
00.300,2.195574191,,,
00.302,2.271148919,,,
00.304,2.316493756,,,
00.306,2.331608701,,,
00.308,2.331608701,,,
00.310,2.195574191,,,
00.312,2.029309789,,,
00.314,1.983964952,,,
00.316,1.983964952,,,
00.318,1.983964952,,,
00.320,2.074654626,,,
00.322,2.014194843,,,
00.324,2.225804082,,,
00.326,2.286263864,,,
00.328,2.392068484,,,
00.330,2.467643212,,,
00.332,2.422298375,,,
00.334,2.54321794,,,
00.336,2.78505707,,,
00.338,3.087355982,,,
00.340,3.389654895,,,
00.342,3.782643481,,,
00.344,4.190747012,,,
00.346,4.523275816,,,
00.348,4.75,,,
00.350,4.583735598,,,
00.352,4.432586142,,,
00.354,4.251206795,,,
00.356,4.054712502,,,
00.358,3.737298644,,,
00.360,3.495459514,,,
00.362,3.434999731,,,
00.364,3.057126091,,,
00.366,2.664137505,,,
00.368,2.104884517,,,
00.370,1.696780985,,,
00.372,1.636321203,,,
00.374,1.727010877,,,
00.376,1.878160333,,,
00.378,1.92350517,,,
00.380,2.044424735,,,
00.382,2.331608701,,,
00.384,2.422298375,,,
00.386,2.392068484,,,
00.388,2.392068484,,,
00.390,2.346723647,,,
00.392,2.210689136,,,
00.394,2.104884517,,,
00.396,2.1653443,,,
00.398,2.119999463,,,
00.400,2.331608701,,,
00.402,2.392068484,,,
00.404,2.422298375,,,
00.406,2.407183429,,,
00.408,2.467643212,,,
00.410,2.240919028,,,
00.412,2.286263864,,,
00.414,2.210689136,,,
00.416,2.271148919,,,
00.418,2.1653443,,,
00.420,2.240919028,,,
00.422,2.407183429,,,
00.424,2.467643212,,,
00.426,2.376953538,,,
00.428,2.376953538,,,
00.430,2.210689136,,,
00.432,2.1653443,,,
00.434,2.044424735,,,
00.436,2.150229354,,,
00.438,2.286263864,,,
00.440,2.467643212,,,
00.442,2.573447831,,,
00.444,2.437413321,,,
00.446,2.528102994,,,
00.448,2.512988049,,,
00.450,2.30137881,,,
00.452,2.256033973,,,
00.454,2.195574191,,,
00.456,2.240919028,,,
00.458,2.256033973,,,
00.460,2.618792668,,,
00.462,2.664137505,,,
00.464,2.649022559,,,
00.466,2.467643212,,,
00.468,2.437413321,,,
00.470,2.376953538,,,
00.472,2.30137881,,,
00.474,2.30137881,,,
00.476,2.331608701,,,
00.478,2.437413321,,,
00.480,2.437413321,,,
00.482,2.558332886,,,
00.484,2.618792668,,,
00.486,2.603677722,,,
00.488,2.54321794,,,
00.490,2.437413321,,,
00.492,2.392068484,,,
00.494,2.512988049,,,
00.496,2.331608701,,,
00.498,2.195574191,,,
00.500,2.512988049,,,
00.502,2.724597287,,,
00.504,2.769942124,,,
00.506,2.724597287,,,
00.508,2.664137505,,,
00.510,2.482758158,,,
00.512,2.452528266,,,
00.514,2.437413321,,,
00.516,2.467643212,,,
00.518,2.603677722,,,
00.520,2.754827179,,,
00.522,2.815286961,,,
00.524,2.905976635,,,
00.526,2.800172015,,,
00.528,2.78505707,,,
00.530,2.769942124,,,
00.532,2.664137505,,,
00.534,2.649022559,,,
00.536,2.709482342,,,
00.538,2.769942124,,,
00.540,2.966436417,,,
00.542,3.16293071,,,
00.544,3.16293071,,,
00.546,3.132700819,,,
00.548,3.132700819,,,
00.550,2.905976635,,,
00.552,2.830401907,,,
00.554,2.845516852,,,
00.556,2.860631798,,,
00.558,3.0268962,,,
00.560,3.223390493,,,
00.562,3.238505438,,,
00.564,3.329195112,,,
00.566,3.253620384,,,
00.568,3.132700819,,,
00.570,3.0268962,,,
00.572,2.966436417,,,
00.574,2.981551363,,,
00.576,3.057126091,,,
00.578,3.193160601,,,
00.580,3.344310058,,,
00.582,3.40476984,,,
00.584,3.298965221,,,
00.586,3.253620384,,,
00.588,3.102470928,,,
00.590,3.011781254,,,
00.592,2.996666308,,,
00.594,2.830401907,,,
00.596,2.92109158,,,
00.598,3.072241037,,,
00.600,3.087355982,,,
00.602,3.147815765,,,
00.604,3.132700819,,,
00.606,2.92109158,,,
00.608,2.845516852,,,
00.610,2.754827179,,,
00.612,2.739712233,,,
00.614,2.603677722,,,
00.616,2.573447831,,,
00.618,2.618792668,,,
00.620,2.739712233,,,
00.622,2.754827179,,,
00.624,2.905976635,,,
00.626,2.800172015,,,
00.628,2.573447831,,,
00.630,2.407183429,,,
00.632,2.316493756,,,
00.634,2.376953538,,,
00.636,2.376953538,,,
00.638,2.467643212,,,
00.640,2.573447831,,,
00.642,2.588562777,,,
00.644,2.54321794,,,
00.646,2.482758158,,,
00.648,2.331608701,,,
00.650,2.240919028,,,
00.652,2.135114408,,,
00.654,2.180459245,,,
00.656,2.135114408,,,
00.658,2.331608701,,,
00.660,2.452528266,,,
00.662,2.452528266,,,
00.664,2.467643212,,,
00.666,2.437413321,,,
00.668,2.316493756,,,
00.670,2.195574191,,,
00.672,2.119999463,,,
00.674,2.135114408,,,
00.676,2.210689136,,,
00.678,2.407183429,,,
00.680,2.467643212,,,
00.682,2.422298375,,,
00.684,2.392068484,,,
00.686,2.407183429,,,
00.688,2.271148919,,,
00.690,2.1653443,,,
00.692,2.104884517,,,
00.694,2.104884517,,,
00.696,2.180459245,,,
00.698,2.482758158,,,
00.700,2.54321794,,,
00.702,2.331608701,,,
00.704,2.286263864,,,
00.706,2.452528266,,,
00.708,2.271148919,,,
00.710,2.210689136,,,
00.712,2.104884517,,,
00.714,2.119999463,,,
00.716,2.225804082,,,
00.718,2.392068484,,,
00.720,2.467643212,,,
00.722,2.512988049,,,
00.724,2.437413321,,,
00.726,2.407183429,,,
00.728,2.271148919,,,
00.730,2.225804082,,,
00.732,2.1653443,,,
00.734,2.210689136,,,
00.736,2.180459245,,,
00.738,2.361838593,,,
00.740,2.54321794,,,
00.742,2.573447831,,,
00.744,2.528102994,,,
00.746,2.392068484,,,
00.748,2.135114408,,,
00.750,2.135114408,,,
00.752,2.135114408,,,
00.754,2.271148919,,,
00.756,2.286263864,,,
00.758,2.452528266,,,
00.760,2.528102994,,,
00.762,2.467643212,,,
00.764,2.558332886,,,
00.766,2.392068484,,,
00.768,2.119999463,,,
00.770,2.074654626,,,
00.772,2.150229354,,,
00.774,2.271148919,,,
00.776,2.256033973,,,
00.778,2.452528266,,,
00.780,2.497873103,,,
00.782,2.482758158,,,
00.784,2.512988049,,,
00.786,2.482758158,,,
00.788,2.316493756,,,
00.790,2.210689136,,,
00.792,2.240919028,,,
00.794,2.240919028,,,
00.796,2.1653443,,,
00.798,2.452528266,,,
00.800,2.407183429,,,
00.802,2.452528266,,,
00.804,2.437413321,,,
00.806,2.437413321,,,
00.808,2.195574191,,,
00.810,2.135114408,,,
00.812,2.150229354,,,
00.814,2.210689136,,,
00.816,2.286263864,,,
00.818,2.437413321,,,
00.820,2.467643212,,,
00.822,2.437413321,,,
00.824,2.422298375,,,
00.826,2.376953538,,,
00.828,2.225804082,,,
00.830,2.119999463,,,
00.832,2.1653443,,,
00.834,2.150229354,,,
00.836,2.195574191,,,
00.838,2.376953538,,,
00.840,2.407183429,,,
00.842,2.452528266,,,
00.844,2.422298375,,,
00.846,2.30137881,,,
00.848,2.180459245,,,
00.850,2.05953968,,,
00.852,2.044424735,,,
00.854,2.240919028,,,
00.856,2.240919028,,,
00.858,2.376953538,,,
00.860,2.437413321,,,
00.862,2.482758158,,,
00.864,2.422298375,,,
00.866,2.256033973,,,
00.868,2.135114408,,,
00.870,2.150229354,,,
00.872,2.119999463,,,
00.874,2.195574191,,,
00.876,2.286263864,,,
00.878,2.467643212,,,
00.880,2.497873103,,,
00.882,2.467643212,,,
00.884,2.30137881,,,
00.886,2.240919028,,,
00.888,2.180459245,,,
00.890,2.195574191,,,
00.892,2.074654626,,,
00.894,2.089769571,,,
00.896,2.225804082,,,
00.898,2.407183429,,,
00.900,2.437413321,,,
00.902,2.482758158,,,
00.904,2.392068484,,,
00.906,2.210689136,,,
00.908,2.029309789,,,
00.910,2.074654626,,,
00.912,2.135114408,,,
00.914,2.135114408,,,
00.916,2.180459245,,,
00.918,2.392068484,,,
00.920,2.467643212,,,
00.922,2.376953538,,,
00.924,2.331608701,,,
00.926,2.30137881,,,
00.928,2.256033973,,,
00.930,2.074654626,,,
00.932,2.044424735,,,
00.934,2.150229354,,,
00.936,2.256033973,,,
00.938,2.392068484,,,
00.940,2.422298375,,,
00.942,2.271148919,,,
00.944,2.316493756,,,
00.946,2.210689136,,,
00.948,2.119999463,,,
00.950,2.074654626,,,
00.952,2.135114408,,,
00.954,2.135114408,,,
00.956,2.331608701,,,
00.958,2.135114408,,,
00.960,2.392068484,,,
00.962,2.467643212,,,
00.964,2.376953538,,,
00.966,2.195574191,,,
00.968,2.104884517,,,
00.970,2.074654626,,,
00.972,2.135114408,,,
00.974,2.1653443,,,
00.976,2.286263864,,,
00.978,2.437413321,,,
00.980,2.392068484,,,
00.982,2.30137881,,,
00.984,2.271148919,,,
00.986,2.195574191,,,
00.988,2.195574191,,,
00.990,2.089769571,,,
00.992,2.135114408,,,
00.994,2.256033973,,,
00.996,2.437413321,,,
00.998,2.452528266,,,
01.000,2.467643212,,,
01.002,2.497873103,,,
01.004,2.482758158,,,
01.006,2.286263864,,,
01.008,2.150229354,,,
01.010,2.089769571,,,
01.012,2.225804082,,,
01.014,2.256033973,,,
01.016,2.467643212,,,
01.018,2.603677722,,,
01.020,2.649022559,,,
01.022,2.497873103,,,
01.024,2.286263864,,,
01.026,2.316493756,,,
01.028,2.1653443,,,
01.030,2.1653443,,,
01.032,2.286263864,,,
01.034,2.331608701,,,
01.036,2.512988049,,,
01.038,2.558332886,,,
01.040,2.618792668,,,
01.042,2.618792668,,,
01.044,2.54321794,,,
01.046,2.376953538,,,
01.048,2.331608701,,,
01.050,2.286263864,,,
01.052,2.331608701,,,
01.054,2.30137881,,,
01.056,2.467643212,,,
01.058,2.54321794,,,
01.060,2.497873103,,,
01.062,2.437413321,,,
01.064,2.452528266,,,
01.066,2.271148919,,,
01.068,2.180459245,,,
01.070,1.92350517,,,
01.072,2.104884517,,,
01.074,2.180459245,,,
01.076,2.361838593,,,
01.078,2.467643212,,,
01.080,2.422298375,,,
01.082,2.392068484,,,
01.084,2.376953538,,,
01.086,2.1653443,,,
01.088,2.119999463,,,
01.090,2.089769571,,,
01.092,1.983964952,,,
01.094,1.983964952,,,
01.096,2.286263864,,,
01.098,2.437413321,,,
01.100,2.467643212,,,
01.102,2.316493756,,,
01.104,2.331608701,,,
01.106,2.074654626,,,
01.108,2.029309789,,,
01.110,2.074654626,,,
01.112,2.05953968,,,
01.114,2.119999463,,,
01.116,2.392068484,,,
01.118,2.392068484,,,
01.120,2.286263864,,,
01.122,2.225804082,,,
01.124,2.286263864,,,
01.126,2.05953968,,,
01.128,2.044424735,,,
01.130,2.014194843,,,
01.132,1.983964952,,,
01.134,2.180459245,,,
01.136,2.286263864,,,
01.138,2.286263864,,,
01.140,2.331608701,,,
01.142,2.346723647,,,
01.144,2.286263864,,,
01.146,2.074654626,,,
01.148,1.878160333,,,
01.150,1.908390224,,,
01.152,2.029309789,,,
01.154,2.014194843,,,
01.156,2.271148919,,,
01.158,2.271148919,,,
01.160,2.271148919,,,
01.162,2.225804082,,,
01.164,2.044424735,,,
01.166,2.029309789,,,
01.168,2.089769571,,,
01.170,2.240919028,,,
01.172,2.497873103,,,
01.174,2.679252451,,,
01.176,3.087355982,,,
01.178,3.40476984,,,
01.180,3.540804351,,,
01.182,3.827988317,,,
01.184,4.190747012,,,
01.186,4.432586142,,,
01.188,4.538390761,,,
01.190,4.493045925,,,
01.192,4.432586142,,,
01.194,4.341896468,,,
01.196,4.281436686,,,
01.198,4.009367665,,,
01.200,3.767528535,,,
01.202,3.389654895,,,
01.204,2.845516852,,,
01.206,2.30137881,,,
01.208,1.953735061,,,
01.210,1.772355714,,,
01.212,1.742125822,,,
01.214,1.908390224,,,
01.216,1.983964952,,,
01.218,2.180459245,,,
01.220,2.286263864,,,
01.222,2.271148919,,,
01.224,2.210689136,,,
01.226,2.256033973,,,
01.228,2.1653443,,,
01.230,2.135114408,,,
01.232,2.119999463,,,
01.234,2.225804082,,,
01.236,2.30137881,,,
01.238,2.467643212,,,
01.240,2.376953538,,,
01.242,2.361838593,,,
01.244,2.30137881,,,
01.246,2.271148919,,,
01.248,2.240919028,,,
01.250,2.119999463,,,
01.252,1.999079898,,,
01.254,2.225804082,,,
01.256,2.497873103,,,
01.258,2.407183429,,,
01.260,2.512988049,,,
01.262,2.482758158,,,
01.264,2.331608701,,,
01.266,2.195574191,,,
01.268,2.1653443,,,
01.270,2.1653443,,,
01.272,2.195574191,,,
01.274,2.422298375,,,
01.276,2.497873103,,,
01.278,2.54321794,,,
01.280,2.54321794,,,
01.282,2.512988049,,,
01.284,2.346723647,,,
01.286,2.225804082,,,
01.288,2.240919028,,,
01.290,2.210689136,,,
01.292,2.119999463,,,
01.294,2.392068484,,,
01.296,2.467643212,,,
01.298,2.558332886,,,
01.300,2.376953538,,,
01.302,2.482758158,,,
01.304,2.376953538,,,
01.306,2.225804082,,,
01.308,2.195574191,,,
01.310,2.256033973,,,
01.312,2.346723647,,,
01.314,2.528102994,,,
01.316,2.588562777,,,
01.318,2.664137505,,,
01.320,2.649022559,,,
01.322,2.497873103,,,
01.324,2.331608701,,,
01.326,2.316493756,,,
01.328,2.392068484,,,
01.330,2.392068484,,,
01.332,2.392068484,,,
01.334,2.694367396,,,
01.336,2.679252451,,,
01.338,2.724597287,,,
01.340,2.679252451,,,
01.342,2.694367396,,,
01.344,2.528102994,,,
01.346,2.467643212,,,
01.348,2.331608701,,,
01.350,2.331608701,,,
01.352,2.512988049,,,
01.354,2.769942124,,,
01.356,2.709482342,,,
01.358,2.800172015,,,
01.360,2.739712233,,,
01.362,2.800172015,,,
01.364,2.573447831,,,
01.366,2.528102994,,,
01.368,2.558332886,,,
01.370,2.573447831,,,
01.372,2.694367396,,,
01.374,2.92109158,,,
01.376,2.966436417,,,
01.378,3.011781254,,,
01.380,2.92109158,,,
01.382,2.951321472,,,
01.384,2.875746744,,,
01.386,2.739712233,,,
01.388,2.709482342,,,
01.390,2.830401907,,,
01.392,2.981551363,,,
01.394,3.193160601,,,
01.396,3.208275547,,,
01.398,3.283850275,,,
01.400,3.208275547,,,
01.402,3.117585873,,,
01.404,3.042011145,,,
01.406,2.966436417,,,
01.408,2.951321472,,,
01.410,3.087355982,,,
01.412,3.132700819,,,
01.414,3.26873533,,,
01.416,3.359425003,,,
01.418,3.359425003,,,
01.420,3.374539949,,,
01.422,3.283850275,,,
01.424,3.011781254,,,
01.426,3.011781254,,,
01.428,2.981551363,,,
01.430,3.011781254,,,
01.432,3.0268962,,,
01.434,3.193160601,,,
01.436,3.253620384,,,
01.438,3.223390493,,,
01.440,3.132700819,,,
01.442,3.042011145,,,
01.444,2.78505707,,,
01.446,2.754827179,,,
01.448,2.664137505,,,
01.450,2.664137505,,,
01.452,2.709482342,,,
01.454,2.875746744,,,
01.456,2.875746744,,,
01.458,2.830401907,,,
01.460,2.724597287,,,
01.462,2.649022559,,,
01.464,2.422298375,,,
01.466,2.361838593,,,
01.468,2.376953538,,,
01.470,2.376953538,,,
01.472,2.452528266,,,
01.474,2.603677722,,,
01.476,2.633907614,,,
01.478,2.588562777,,,
01.480,2.512988049,,,
01.482,2.467643212,,,
01.484,2.256033973,,,
01.486,2.180459245,,,
01.488,2.180459245,,,
01.490,2.195574191,,,
01.492,2.286263864,,,
01.494,2.452528266,,,
01.496,2.482758158,,,
01.498,2.467643212,,,
01.500,2.437413321,,,
01.502,2.331608701,,,
01.504,2.180459245,,,
01.506,2.119999463,,,
01.508,2.150229354,,,
01.510,2.150229354,,,
01.512,2.240919028,,,
01.514,2.361838593,,,
01.516,2.240919028,,,
01.518,2.346723647,,,
01.520,2.361838593,,,
01.522,2.361838593,,,
01.524,2.256033973,,,
01.526,2.089769571,,,
01.528,2.05953968,,,
01.530,2.150229354,,,
01.532,2.271148919,,,
01.534,2.346723647,,,
01.536,2.407183429,,,
01.538,2.452528266,,,
01.540,2.437413321,,,
01.542,2.316493756,,,
01.544,2.240919028,,,
01.546,2.225804082,,,
01.548,2.05953968,,,
01.550,2.135114408,,,
01.552,2.286263864,,,
01.554,2.437413321,,,
01.556,2.482758158,,,
01.558,2.54321794,,,
01.560,2.422298375,,,
01.562,2.089769571,,,
01.564,1.999079898,,,
01.566,2.104884517,,,
01.568,2.135114408,,,
01.570,2.150229354,,,
01.572,2.407183429,,,
01.574,2.512988049,,,
01.576,2.512988049,,,
01.578,2.512988049,,,
01.580,2.482758158,,,
01.582,2.316493756,,,
01.584,2.225804082,,,
01.586,2.1653443,,,
01.588,2.180459245,,,
01.590,2.195574191,,,
01.592,2.361838593,,,
01.594,2.54321794,,,
01.596,2.376953538,,,
01.598,2.407183429,,,
01.600,2.467643212,,,
01.602,2.30137881,,,
01.604,2.180459245,,,
01.606,2.150229354,,,
01.608,2.225804082,,,
01.610,2.180459245,,,
01.612,2.346723647,,,
01.614,2.452528266,,,
01.616,2.54321794,,,
01.618,2.512988049,,,
01.620,2.467643212,,,
01.622,2.30137881,,,
01.624,2.210689136,,,
01.626,2.195574191,,,
01.628,2.225804082,,,
01.630,2.331608701,,,
01.632,2.452528266,,,
01.634,2.135114408,,,
01.636,2.316493756,,,
01.638,2.558332886,,,
01.640,2.497873103,,,
01.642,2.271148919,,,
01.644,2.104884517,,,
01.646,2.135114408,,,
01.648,2.180459245,,,
01.650,2.150229354,,,
01.652,2.346723647,,,
01.654,2.437413321,,,
01.656,2.558332886,,,
01.658,2.497873103,,,
01.660,2.392068484,,,
01.662,2.256033973,,,
01.664,2.150229354,,,
01.666,2.104884517,,,
01.668,2.135114408,,,
01.670,2.1653443,,,
01.672,2.30137881,,,
01.674,2.482758158,,,
01.676,2.482758158,,,
01.678,2.467643212,,,
01.680,2.376953538,,,
01.682,2.135114408,,,
01.684,2.089769571,,,
01.686,2.074654626,,,
01.688,2.089769571,,,
01.690,2.119999463,,,
01.692,2.392068484,,,
01.694,2.422298375,,,
01.696,2.422298375,,,
01.698,2.392068484,,,
01.700,2.361838593,,,
01.702,2.119999463,,,
01.704,2.089769571,,,
01.706,2.104884517,,,
01.708,2.089769571,,,
01.710,2.210689136,,,
01.712,2.346723647,,,
01.714,2.407183429,,,
01.716,2.467643212,,,
01.718,2.437413321,,,
01.720,2.30137881,,,
01.722,2.089769571,,,
01.724,2.074654626,,,
01.726,2.104884517,,,
01.728,2.089769571,,,
01.730,2.1653443,,,
01.732,2.407183429,,,
01.734,2.376953538,,,
01.736,2.30137881,,,
01.738,2.346723647,,,
01.740,2.346723647,,,
01.742,2.1653443,,,
01.744,2.119999463,,,
01.746,2.074654626,,,
01.748,2.119999463,,,
01.750,2.104884517,,,
01.752,2.316493756,,,
01.754,2.376953538,,,
01.756,2.422298375,,,
01.758,2.30137881,,,
01.760,2.271148919,,,
01.762,2.180459245,,,
01.764,2.044424735,,,
01.766,2.104884517,,,
01.768,2.119999463,,,
01.770,2.180459245,,,
01.772,2.422298375,,,
01.774,2.376953538,,,
01.776,2.346723647,,,
01.778,2.331608701,,,
01.780,2.180459245,,,
01.782,2.029309789,,,
01.784,2.119999463,,,
01.786,2.104884517,,,
01.788,1.983964952,,,
01.790,2.1653443,,,
01.792,2.346723647,,,
01.794,2.407183429,,,
01.796,2.437413321,,,
01.798,2.452528266,,,
01.800,2.392068484,,,
01.802,2.210689136,,,
01.804,2.135114408,,,
01.806,2.044424735,,,
01.808,2.150229354,,,
01.810,2.256033973,,,
01.812,2.497873103,,,
01.814,2.573447831,,,
01.816,2.482758158,,,
01.818,2.437413321,,,
01.820,2.361838593,,,
01.822,2.210689136,,,
01.824,2.195574191,,,
01.826,2.150229354,,,
01.828,2.180459245,,,
01.830,2.54321794,,,
01.832,2.558332886,,,
01.834,2.407183429,,,
01.836,2.467643212,,,
01.838,2.452528266,,,
01.840,2.346723647,,,
01.842,2.225804082,,,
01.844,2.150229354,,,
01.846,2.225804082,,,
01.848,2.30137881,,,
01.850,2.452528266,,,
01.852,2.512988049,,,
01.854,2.633907614,,,
01.856,2.603677722,,,
01.858,2.528102994,,,
01.860,2.407183429,,,
01.862,2.361838593,,,
01.864,2.256033973,,,
01.866,2.225804082,,,
01.868,2.195574191,,,
01.870,2.361838593,,,
01.872,2.437413321,,,
01.874,2.467643212,,,
01.876,2.467643212,,,
01.878,2.422298375,,,
01.880,2.240919028,,,
01.882,2.119999463,,,
01.884,2.05953968,,,
01.886,2.05953968,,,
01.888,2.074654626,,,
01.890,2.240919028,,,
01.892,2.376953538,,,
01.894,2.392068484,,,
01.896,2.361838593,,,
01.898,2.346723647,,,
01.900,2.135114408,,,
01.902,2.05953968,,,
01.904,2.044424735,,,
01.906,2.104884517,,,
01.908,2.195574191,,,
01.910,2.195574191,,,
01.912,2.346723647,,,
01.914,2.256033973,,,
01.916,2.240919028,,,
01.918,2.271148919,,,
01.920,2.029309789,,,
01.922,2.014194843,,,
01.924,1.983964952,,,
01.926,2.104884517,,,
01.928,2.104884517,,,
01.930,2.286263864,,,
01.932,2.271148919,,,
01.934,2.361838593,,,
01.936,2.361838593,,,
01.938,2.331608701,,,
01.940,2.089769571,,,
01.942,1.983964952,,,
01.944,2.074654626,,,
01.946,2.135114408,,,
01.948,1.983964952,,,
01.950,2.119999463,,,
01.952,2.30137881,,,
01.954,2.437413321,,,
01.956,2.392068484,,,
01.958,2.30137881,,,
01.960,2.05953968,,,
01.962,2.014194843,,,
01.964,1.908390224,,,
01.966,1.983964952,,,
01.968,1.968850007,,,
01.970,2.180459245,,,
01.972,2.195574191,,,
01.974,2.195574191,,,
01.976,2.271148919,,,
01.978,2.331608701,,,
01.980,2.331608701,,,
01.982,2.286263864,,,
01.984,2.210689136,,,
01.986,2.618792668,,,
01.988,2.981551363,,,
01.990,3.314080166,,,
01.992,3.661723916,,,
01.994,4.084942393,,,
01.996,4.462816033,,,
01.998,4.689540218,,,
02.000,4.553505707,,,
02.002,4.493045925,,,
02.004,4.417471196,,,
02.006,4.220976903,,,
02.008,3.903563045,,,
02.010,3.812873372,,,
02.012,3.571034242,,,
02.014,3.208275547,,,
02.016,2.739712233,,,
02.018,2.346723647,,,
02.020,1.908390224,,,
02.022,1.68166604,,,
02.024,1.651436149,,,
02.026,1.757240768,,,
02.028,1.938620115,,,
02.030,2.195574191,,,
02.032,2.30137881,,,
02.034,2.30137881,,,
02.036,2.452528266,,,
02.038,2.407183429,,,
02.040,2.210689136,,,
02.042,2.1653443,,,
02.044,2.119999463,,,
02.046,2.119999463,,,
02.048,2.210689136,,,
02.050,2.392068484,,,
02.052,2.422298375,,,
02.054,2.497873103,,,
02.056,2.331608701,,,
02.058,2.195574191,,,
02.060,2.195574191,,,
02.062,2.05953968,,,
02.064,2.135114408,,,
02.066,2.180459245,,,
02.068,2.240919028,,,
02.070,2.467643212,,,
02.072,2.528102994,,,
02.074,2.54321794,,,
02.076,2.392068484,,,
02.078,2.361838593,,,
02.080,2.286263864,,,
02.082,2.089769571,,,
02.084,2.089769571,,,
02.086,2.210689136,,,
02.088,2.240919028,,,
02.090,2.467643212,,,
02.092,2.603677722,,,
02.094,2.558332886,,,
02.096,2.528102994,,,
02.098,2.407183429,,,
02.100,2.225804082,,,
02.102,2.240919028,,,
02.104,2.240919028,,,
02.106,2.30137881,,,
02.108,2.376953538,,,
02.110,2.54321794,,,
02.112,2.633907614,,,
02.114,2.603677722,,,
02.116,2.54321794,,,
02.118,2.452528266,,,
02.120,2.286263864,,,
02.122,2.30137881,,,
02.124,2.30137881,,,
02.126,2.225804082,,,
02.128,2.346723647,,,
02.130,2.558332886,,,
02.132,2.664137505,,,
02.134,2.603677722,,,
02.136,2.482758158,,,
02.138,2.467643212,,,
02.140,2.407183429,,,
02.142,2.331608701,,,
02.144,2.361838593,,,
02.146,2.407183429,,,
02.148,2.633907614,,,
02.150,2.709482342,,,
02.152,2.754827179,,,
02.154,2.769942124,,,
02.156,2.679252451,,,
02.158,2.588562777,,,
02.160,2.512988049,,,
02.162,2.497873103,,,
02.164,2.512988049,,,
02.166,2.512988049,,,
02.168,2.649022559,,,
02.170,2.739712233,,,
02.172,2.845516852,,,
02.174,2.936206526,,,
02.176,2.875746744,,,
02.178,2.649022559,,,
02.180,2.512988049,,,
02.182,2.588562777,,,
02.184,2.603677722,,,
02.186,2.679252451,,,
02.188,2.890861689,,,
02.190,3.0268962,,,
02.192,3.117585873,,,
02.194,3.147815765,,,
02.196,3.087355982,,,
02.198,2.860631798,,,
02.200,2.769942124,,,
02.202,2.936206526,,,
02.204,2.981551363,,,
02.206,3.0268962,,,
02.208,3.132700819,,,
02.210,3.16293071,,,
02.212,3.178045656,,,
02.214,3.238505438,,,
02.216,3.329195112,,,
02.218,3.132700819,,,
02.220,2.981551363,,,
02.222,3.011781254,,,
02.224,3.057126091,,,
02.226,3.117585873,,,
02.228,3.283850275,,,
02.230,3.314080166,,,
02.232,3.238505438,,,
02.234,3.223390493,,,
02.236,3.26873533,,,
02.238,3.147815765,,,
02.240,3.042011145,,,
02.242,2.951321472,,,
02.244,2.890861689,,,
02.246,2.951321472,,,
02.248,3.087355982,,,
02.250,3.072241037,,,
02.252,3.102470928,,,
02.254,3.057126091,,,
02.256,3.0268962,,,
02.258,2.78505707,,,
02.260,2.709482342,,,
02.262,2.603677722,,,
02.264,2.558332886,,,
02.266,2.512988049,,,
02.268,2.724597287,,,
02.270,2.830401907,,,
02.272,2.830401907,,,
02.274,2.754827179,,,
02.276,2.588562777,,,
02.278,2.437413321,,,
02.280,2.407183429,,,
02.282,2.316493756,,,
02.284,2.316493756,,,
02.286,2.346723647,,,
02.288,2.482758158,,,
02.290,2.558332886,,,
02.292,2.588562777,,,
02.294,2.54321794,,,
02.296,2.437413321,,,
02.298,2.286263864,,,
02.300,2.271148919,,,
02.302,2.225804082,,,
02.304,2.150229354,,,
02.306,2.225804082,,,
02.308,2.467643212,,,
02.310,2.54321794,,,
02.312,2.54321794,,,
02.314,2.392068484,,,
02.316,2.331608701,,,
02.318,2.180459245,,,
02.320,2.150229354,,,
02.322,2.150229354,,,
02.324,2.225804082,,,
02.326,2.225804082,,,
02.328,2.361838593,,,
02.330,2.512988049,,,
02.332,2.54321794,,,
02.334,2.376953538,,,
02.336,2.30137881,,,
02.338,2.195574191,,,
02.340,2.150229354,,,
02.342,2.1653443,,,
02.344,2.1653443,,,
02.346,2.180459245,,,
02.348,2.392068484,,,
02.350,2.512988049,,,
02.352,2.649022559,,,
02.354,2.54321794,,,
02.356,2.316493756,,,
02.358,1.968850007,,,
02.360,2.150229354,,,
02.362,2.240919028,,,
02.364,2.271148919,,,
02.366,2.210689136,,,
02.368,2.376953538,,,
02.370,2.558332886,,,
02.372,2.573447831,,,
02.374,2.512988049,,,
02.376,2.512988049,,,
02.378,2.286263864,,,
02.380,2.135114408,,,
02.382,2.044424735,,,
02.384,2.1653443,,,
02.386,2.392068484,,,
02.388,2.54321794,,,
02.390,2.573447831,,,
02.392,2.633907614,,,
02.394,2.603677722,,,
02.396,2.512988049,,,
02.398,2.422298375,,,
02.400,2.089769571,,,
02.402,2.150229354,,,
02.404,2.210689136,,,
02.406,2.346723647,,,
02.408,2.467643212,,,
02.410,2.512988049,,,
02.412,2.512988049,,,
02.414,2.54321794,,,
02.416,2.422298375,,,
02.418,2.286263864,,,
02.420,2.210689136,,,
02.422,2.150229354,,,
02.424,2.074654626,,,
02.426,2.150229354,,,
02.428,2.528102994,,,
02.430,2.633907614,,,
02.432,2.512988049,,,
02.434,2.528102994,,,
02.436,2.346723647,,,
02.438,2.240919028,,,
02.440,2.210689136,,,
02.442,2.210689136,,,
02.444,2.271148919,,,
02.446,2.392068484,,,
02.448,2.452528266,,,
02.450,2.407183429,,,
02.452,2.512988049,,,
02.454,2.512988049,,,
02.456,2.361838593,,,
02.458,2.30137881,,,
02.460,2.256033973,,,
02.462,2.210689136,,,
02.464,2.104884517,,,
02.466,2.30137881,,,
02.468,2.437413321,,,
02.470,2.452528266,,,
02.472,2.437413321,,,
02.474,2.452528266,,,
02.476,2.346723647,,,
02.478,2.210689136,,,
02.480,2.150229354,,,
02.482,2.256033973,,,
02.484,2.225804082,,,
02.486,2.316493756,,,
02.488,2.467643212,,,
02.490,2.558332886,,,
02.492,2.346723647,,,
02.494,2.392068484,,,
02.496,2.331608701,,,
02.498,2.135114408,,,
02.500,2.074654626,,,
02.502,2.1653443,,,
02.504,2.210689136,,,
02.506,2.376953538,,,
02.508,2.467643212,,,
02.510,2.452528266,,,
02.512,2.361838593,,,
02.514,2.392068484,,,
02.516,2.271148919,,,
02.518,2.05953968,,,
02.520,2.05953968,,,
02.522,2.180459245,,,
02.524,2.1653443,,,
02.526,2.331608701,,,
02.528,2.346723647,,,
02.530,2.512988049,,,
02.532,2.482758158,,,
02.534,2.407183429,,,
02.536,2.240919028,,,
02.538,2.180459245,,,
02.540,2.1653443,,,
02.542,2.104884517,,,
02.544,2.150229354,,,
02.546,2.331608701,,,
02.548,2.407183429,,,
02.550,2.512988049,,,
02.552,2.573447831,,,
02.554,2.497873103,,,
02.556,2.286263864,,,
02.558,2.256033973,,,
02.560,2.180459245,,,
02.562,2.119999463,,,
02.564,2.195574191,,,
02.566,2.422298375,,,
02.568,2.512988049,,,
02.570,2.54321794,,,
02.572,2.724597287,,,
02.574,2.392068484,,,
02.576,2.316493756,,,
02.578,2.225804082,,,
02.580,2.210689136,,,
02.582,2.135114408,,,
02.584,2.210689136,,,
02.586,2.467643212,,,
02.588,2.664137505,,,
02.590,2.709482342,,,
02.592,2.618792668,,,
02.594,2.633907614,,,
02.596,2.422298375,,,
02.598,2.30137881,,,
02.600,2.240919028,,,
02.602,2.407183429,,,
02.604,2.407183429,,,
02.606,2.603677722,,,
02.608,2.618792668,,,
02.610,2.664137505,,,
02.612,2.603677722,,,
02.614,2.497873103,,,
02.616,2.331608701,,,
02.618,2.240919028,,,
02.620,2.1653443,,,
02.622,2.1653443,,,
02.624,2.256033973,,,
02.626,2.528102994,,,
02.628,2.497873103,,,
02.630,2.407183429,,,
02.632,2.331608701,,,
02.634,2.392068484,,,
02.636,2.180459245,,,
02.638,2.044424735,,,
02.640,2.119999463,,,
02.642,2.150229354,,,
02.644,2.1653443,,,
02.646,2.361838593,,,
02.648,2.392068484,,,
02.650,2.467643212,,,
02.652,2.422298375,,,
02.654,2.346723647,,,
02.656,2.150229354,,,
02.658,2.05953968,,,
02.660,2.05953968,,,
02.662,2.150229354,,,
02.664,2.119999463,,,
02.666,2.316493756,,,
02.668,2.392068484,,,
02.670,2.361838593,,,
02.672,2.331608701,,,
02.674,2.346723647,,,
02.676,2.135114408,,,
02.678,2.104884517,,,
02.680,2.180459245,,,
02.682,2.05953968,,,
02.684,2.210689136,,,
02.686,2.407183429,,,
02.688,2.512988049,,,
02.690,2.482758158,,,
02.692,2.240919028,,,
02.694,2.150229354,,,
02.696,1.938620115,,,
02.698,1.908390224,,,
02.700,1.908390224,,,
02.702,2.089769571,,,
02.704,2.210689136,,,
02.706,2.437413321,,,
02.708,2.482758158,,,
02.710,2.452528266,,,
02.712,2.346723647,,,
02.714,2.180459245,,,
02.716,2.05953968,,,
02.718,2.044424735,,,
02.720,1.983964952,,,
02.722,1.999079898,,,
02.724,2.1653443,,,
02.726,2.210689136,,,
02.728,2.271148919,,,
02.730,2.331608701,,,
02.732,2.437413321,,,
02.734,2.558332886,,,
02.736,2.618792668,,,
02.738,2.618792668,,,
02.740,2.92109158,,,
02.742,3.117585873,,,
02.744,3.40476984,,,
02.746,3.964022828,,,
02.748,4.417471196,,,
02.750,4.568620653,,,
02.752,4.447701088,,,
02.754,4.236091849,,,
02.756,3.858218209,,,
02.758,3.676838861,,,
02.760,3.465229623,,,
02.762,3.389654895,,,
02.764,3.329195112,,,
02.766,3.0268962,,,
02.768,2.603677722,,,
02.770,2.225804082,,,
02.772,2.014194843,,,
02.774,1.81770055,,,
02.776,1.772355714,,,
02.778,1.727010877,,,
02.780,1.81770055,,,
02.782,1.953735061,,,
02.784,2.225804082,,,
02.786,2.361838593,,,
02.788,2.512988049,,,
02.790,2.407183429,,,
02.792,2.30137881,,,
02.794,2.195574191,,,
02.796,2.195574191,,,
02.798,2.074654626,,,
02.800,2.150229354,,,
02.802,2.225804082,,,
02.804,2.331608701,,,
02.806,2.497873103,,,
02.808,2.422298375,,,
02.810,2.452528266,,,
02.812,2.452528266,,,
02.814,2.271148919,,,
02.816,2.180459245,,,
02.818,2.240919028,,,
02.820,2.210689136,,,
02.822,1.968850007,,,
02.824,2.286263864,,,
02.826,2.528102994,,,
02.828,2.452528266,,,
02.830,2.558332886,,,
02.832,2.603677722,,,
02.834,2.452528266,,,
02.836,2.135114408,,,
02.838,2.210689136,,,
02.840,2.331608701,,,
02.842,2.361838593,,,
02.844,2.437413321,,,
02.846,2.497873103,,,
02.848,2.528102994,,,
02.850,2.512988049,,,
02.852,2.573447831,,,
02.854,2.376953538,,,
02.856,2.316493756,,,
02.858,2.195574191,,,
02.860,2.210689136,,,
02.862,2.286263864,,,
02.864,2.54321794,,,
02.866,2.588562777,,,
02.868,2.497873103,,,
02.870,2.54321794,,,
02.872,2.664137505,,,
02.874,2.392068484,,,
02.876,2.392068484,,,
02.878,2.346723647,,,
02.880,2.392068484,,,
02.882,2.452528266,,,
02.884,2.588562777,,,
02.886,2.316493756,,,
02.888,2.497873103,,,
02.890,2.649022559,,,
02.892,2.54321794,,,
02.894,2.467643212,,,
02.896,2.346723647,,,
02.898,2.346723647,,,
02.900,2.497873103,,,
02.902,2.422298375,,,
02.904,2.664137505,,,
02.906,2.724597287,,,
02.908,2.830401907,,,
02.910,2.800172015,,,
02.912,2.769942124,,,
02.914,2.603677722,,,
02.916,2.528102994,,,
02.918,2.482758158,,,
02.920,2.497873103,,,
02.922,2.467643212,,,
02.924,2.709482342,,,
02.926,2.754827179,,,
02.928,2.800172015,,,
02.930,2.860631798,,,
02.932,2.860631798,,,
02.934,2.724597287,,,
02.936,2.649022559,,,
02.938,2.467643212,,,
02.940,2.724597287,,,
02.942,2.860631798,,,
02.944,2.92109158,,,
02.946,2.996666308,,,
02.948,2.996666308,,,
02.950,2.996666308,,,
02.952,3.057126091,,,
02.954,3.0268962,,,
02.956,3.0268962,,,
02.958,2.588562777,,,
02.960,2.739712233,,,
02.962,3.0268962,,,
02.964,3.193160601,,,
02.966,3.238505438,,,
02.968,3.26873533,,,
02.970,3.117585873,,,
02.972,3.16293071,,,
02.974,3.102470928,,,
02.976,2.981551363,,,
02.978,3.011781254,,,
02.980,2.966436417,,,
02.982,2.996666308,,,
02.984,3.178045656,,,
02.986,3.178045656,,,
02.988,3.253620384,,,
02.990,3.223390493,,,
02.992,2.966436417,,,
02.994,2.966436417,,,
02.996,2.845516852,,,
02.998,2.905976635,,,
03.000,2.92109158,,,
03.002,2.845516852,,,
03.004,3.057126091,,,
03.006,2.78505707,,,
03.008,2.875746744,,,
03.010,2.845516852,,,
03.012,2.754827179,,,
03.014,2.528102994,,,
03.016,2.528102994,,,
03.018,2.558332886,,,
03.020,2.588562777,,,
03.022,2.573447831,,,
03.024,2.588562777,,,
03.026,2.800172015,,,
03.028,2.739712233,,,
03.030,2.724597287,,,
03.032,2.512988049,,,
03.034,2.346723647,,,
03.036,2.331608701,,,
03.038,2.286263864,,,
03.040,2.286263864,,,
03.042,2.437413321,,,
03.044,2.603677722,,,
03.046,2.649022559,,,
03.048,2.482758158,,,
03.050,2.452528266,,,
03.052,2.225804082,,,
03.054,2.271148919,,,
03.056,2.104884517,,,
03.058,2.210689136,,,
03.060,2.150229354,,,
03.062,2.331608701,,,
03.064,2.392068484,,,
03.066,2.437413321,,,
03.068,2.452528266,,,
03.070,2.512988049,,,
03.072,2.256033973,,,
03.074,2.029309789,,,
03.076,2.1653443,,,
03.078,2.119999463,,,
03.080,2.074654626,,,
03.082,2.210689136,,,
03.084,2.452528266,,,
03.086,2.512988049,,,
03.088,2.512988049,,,
03.090,2.482758158,,,
03.092,2.346723647,,,
03.094,2.210689136,,,
03.096,2.150229354,,,
03.098,2.180459245,,,
03.100,2.1653443,,,
03.102,2.392068484,,,
03.104,2.528102994,,,
03.106,2.573447831,,,
03.108,2.467643212,,,
03.110,2.392068484,,,
03.112,2.180459245,,,
03.114,2.1653443,,,
03.116,2.210689136,,,
03.118,1.938620115,,,
03.120,2.104884517,,,
03.122,2.452528266,,,
03.124,2.528102994,,,
03.126,2.528102994,,,
03.128,2.512988049,,,
03.130,2.422298375,,,
03.132,2.271148919,,,
03.134,2.210689136,,,
03.136,2.286263864,,,
03.138,2.044424735,,,
03.140,2.135114408,,,
03.142,2.437413321,,,
03.144,2.331608701,,,
03.146,2.497873103,,,
03.148,2.528102994,,,
03.150,2.452528266,,,
03.152,2.286263864,,,
03.154,2.210689136,,,
03.156,2.150229354,,,
03.158,2.286263864,,,
03.160,2.256033973,,,
03.162,2.392068484,,,
03.164,2.452528266,,,
03.166,2.512988049,,,
03.168,2.467643212,,,
03.170,2.512988049,,,
03.172,2.376953538,,,
03.174,2.225804082,,,
03.176,2.135114408,,,
03.178,2.195574191,,,
03.180,2.074654626,,,
03.182,2.256033973,,,
03.184,2.482758158,,,
03.186,2.528102994,,,
03.188,2.512988049,,,
03.190,2.467643212,,,
03.192,2.271148919,,,
03.194,2.256033973,,,
03.196,2.210689136,,,
03.198,2.195574191,,,
03.200,2.256033973,,,
03.202,2.437413321,,,
03.204,2.618792668,,,
03.206,2.54321794,,,
03.208,2.286263864,,,
03.210,2.331608701,,,
03.212,2.1653443,,,
03.214,2.150229354,,,
03.216,2.104884517,,,
03.218,2.135114408,,,
03.220,2.180459245,,,
03.222,2.512988049,,,
03.224,2.512988049,,,
03.226,2.512988049,,,
03.228,2.376953538,,,
03.230,2.437413321,,,
03.232,2.180459245,,,
03.234,2.044424735,,,
03.236,2.05953968,,,
03.238,2.029309789,,,
03.240,2.05953968,,,
03.242,2.452528266,,,
03.244,2.467643212,,,
03.246,2.558332886,,,
03.248,2.528102994,,,
03.250,2.407183429,,,
03.252,2.05953968,,,
03.254,2.119999463,,,
03.256,2.210689136,,,
03.258,2.150229354,,,
03.260,2.225804082,,,
03.262,2.331608701,,,
03.264,2.452528266,,,
03.266,2.573447831,,,
03.268,2.528102994,,,
03.270,2.497873103,,,
03.272,2.210689136,,,
03.274,2.05953968,,,
03.276,2.074654626,,,
03.278,2.195574191,,,
03.280,2.150229354,,,
03.282,2.376953538,,,
03.284,2.54321794,,,
03.286,2.558332886,,,
03.288,2.422298375,,,
03.290,2.452528266,,,
03.292,2.256033973,,,
03.294,2.240919028,,,
03.296,2.225804082,,,
03.298,2.256033973,,,
03.300,2.286263864,,,
03.302,2.54321794,,,
03.304,2.422298375,,,
03.306,2.437413321,,,
03.308,2.54321794,,,
03.310,2.573447831,,,
03.312,2.437413321,,,
03.314,2.376953538,,,
03.316,2.361838593,,,
03.318,2.346723647,,,
03.320,2.467643212,,,
03.322,2.603677722,,,
03.324,2.709482342,,,
03.326,2.588562777,,,
03.328,2.588562777,,,
03.330,2.497873103,,,
03.332,2.30137881,,,
03.334,2.256033973,,,
03.336,2.210689136,,,
03.338,2.210689136,,,
03.340,2.376953538,,,
03.342,2.467643212,,,
03.344,2.528102994,,,
03.346,2.512988049,,,
03.348,2.180459245,,,
03.350,2.044424735,,,
03.352,2.210689136,,,
03.354,2.135114408,,,
03.356,2.014194843,,,
03.358,2.044424735,,,
03.360,2.180459245,,,
03.362,2.497873103,,,
03.364,2.422298375,,,
03.366,2.392068484,,,
03.368,2.392068484,,,
03.370,2.150229354,,,
03.372,2.029309789,,,
03.374,2.029309789,,,
03.376,1.938620115,,,
03.378,2.104884517,,,
03.380,2.256033973,,,
03.382,2.422298375,,,
03.384,2.437413321,,,
03.386,2.437413321,,,
03.388,2.422298375,,,
03.390,2.316493756,,,
03.392,2.05953968,,,
03.394,1.802585605,,,
03.396,2.029309789,,,
03.398,2.150229354,,,
03.400,2.240919028,,,
03.402,2.286263864,,,
03.404,2.316493756,,,
03.406,2.331608701,,,
03.408,2.392068484,,,
03.410,2.135114408,,,
03.412,2.044424735,,,
03.414,2.05953968,,,
03.416,2.089769571,,,
03.418,2.05953968,,,
03.420,2.316493756,,,
03.422,2.240919028,,,
03.424,2.407183429,,,
03.426,2.376953538,,,
03.428,2.104884517,,,
03.430,2.119999463,,,
03.432,2.044424735,,,
03.434,2.029309789,,,
03.436,2.029309789,,,
03.438,2.029309789,,,
03.440,2.1653443,,,
03.442,2.316493756,,,
03.444,2.271148919,,,
03.446,2.135114408,,,
03.448,2.210689136,,,
03.450,2.089769571,,,
03.452,2.256033973,,,
03.454,2.392068484,,,
03.456,2.573447831,,,
03.458,2.709482342,,,
03.460,3.102470928,,,
03.462,3.374539949,,,
03.464,3.64660897,,,
03.466,3.827988317,,,
03.468,4.069827447,,,
03.470,3.873333154,,,
03.472,3.843103263,,,
03.474,3.722183698,,,
03.476,3.601264133,,,
03.478,3.540804351,,,
03.480,3.510574459,,,
03.482,3.208275547,,,
03.484,3.117585873,,,
03.486,2.739712233,,,
03.488,2.407183429,,,
03.490,1.953735061,,,
03.492,1.802585605,,,
03.494,1.666551094,,,
03.496,1.666551094,,,
03.498,1.772355714,,,
03.500,2.05953968,,,
03.502,2.271148919,,,
03.504,2.376953538,,,
03.506,2.30137881,,,
03.508,2.392068484,,,
03.510,2.150229354,,,
03.512,2.1653443,,,
03.514,2.180459245,,,
03.516,2.225804082,,,
03.518,2.195574191,,,
03.520,2.30137881,,,
03.522,2.392068484,,,
03.524,2.407183429,,,
03.526,2.376953538,,,
03.528,2.467643212,,,
03.530,2.376953538,,,
03.532,2.044424735,,,
03.534,2.014194843,,,
03.536,2.074654626,,,
03.538,2.256033973,,,
03.540,2.422298375,,,
03.542,2.528102994,,,
03.544,2.437413321,,,
03.546,2.376953538,,,
03.548,2.437413321,,,
03.550,2.240919028,,,
03.552,2.1653443,,,
03.554,2.150229354,,,
03.556,2.150229354,,,
03.558,2.195574191,,,
03.560,2.558332886,,,
03.562,2.603677722,,,
03.564,2.618792668,,,
03.566,2.452528266,,,
03.568,2.467643212,,,
03.570,2.180459245,,,
03.572,2.271148919,,,
03.574,2.225804082,,,
03.576,2.30137881,,,
03.578,2.240919028,,,
03.580,2.467643212,,,
03.582,2.588562777,,,
03.584,2.633907614,,,
03.586,2.512988049,,,
03.588,2.376953538,,,
03.590,2.195574191,,,
03.592,2.240919028,,,
03.594,2.195574191,,,
03.596,2.346723647,,,
03.598,2.376953538,,,
03.600,2.573447831,,,
03.602,2.664137505,,,
03.604,2.558332886,,,
03.606,2.573447831,,,
03.608,2.528102994,,,
03.610,2.271148919,,,
03.612,2.225804082,,,
03.614,2.376953538,,,
03.616,2.422298375,,,
03.618,2.422298375,,,
03.620,2.54321794,,,
03.622,2.769942124,,,
03.624,2.815286961,,,
03.626,2.694367396,,,
03.628,2.54321794,,,
03.630,2.467643212,,,
03.632,2.437413321,,,
03.634,2.467643212,,,
03.636,2.497873103,,,
03.638,2.618792668,,,
03.640,2.78505707,,,
03.642,2.739712233,,,
03.644,2.78505707,,,
03.646,2.890861689,,,
03.648,2.709482342,,,
03.650,2.482758158,,,
03.652,2.558332886,,,
03.654,2.467643212,,,
03.656,2.633907614,,,
03.658,2.800172015,,,
03.660,2.966436417,,,
03.662,3.011781254,,,
03.664,3.057126091,,,
03.666,2.996666308,,,
03.668,2.936206526,,,
03.670,2.830401907,,,
03.672,2.800172015,,,
03.674,2.724597287,,,
03.676,2.890861689,,,
03.678,3.117585873,,,
03.680,3.223390493,,,
03.682,3.178045656,,,
03.684,3.16293071,,,
03.686,3.147815765,,,
03.688,2.92109158,,,
03.690,2.936206526,,,
03.692,2.996666308,,,
03.694,2.981551363,,,
03.696,2.905976635,,,
03.698,3.117585873,,,
03.700,3.16293071,,,
03.702,3.117585873,,,
03.704,3.042011145,,,
03.706,3.132700819,,,
03.708,3.042011145,,,
03.710,2.936206526,,,
03.712,2.845516852,,,
03.714,2.830401907,,,
03.716,2.860631798,,,
03.718,2.951321472,,,
03.720,2.951321472,,,
03.722,2.92109158,,,
03.724,2.905976635,,,
03.726,2.905976635,,,
03.728,2.78505707,,,
03.730,2.588562777,,,
03.732,2.497873103,,,
03.734,2.422298375,,,
03.736,2.497873103,,,
03.738,2.724597287,,,
03.740,2.769942124,,,
03.742,2.78505707,,,
03.744,2.709482342,,,
03.746,2.664137505,,,
03.748,2.422298375,,,
03.750,2.30137881,,,
03.752,2.316493756,,,
03.754,2.256033973,,,
03.756,2.30137881,,,
03.758,2.30137881,,,
03.760,2.452528266,,,
03.762,2.376953538,,,
03.764,2.452528266,,,
03.766,2.528102994,,,
03.768,2.240919028,,,
03.770,2.150229354,,,
03.772,1.999079898,,,
03.774,2.135114408,,,
03.776,2.150229354,,,
03.778,2.361838593,,,
03.780,2.467643212,,,
03.782,2.437413321,,,
03.784,2.422298375,,,
03.786,2.437413321,,,
03.788,2.256033973,,,
03.790,2.104884517,,,
03.792,2.014194843,,,
03.794,2.014194843,,,
03.796,2.104884517,,,
03.798,2.392068484,,,
03.800,2.392068484,,,
03.802,2.286263864,,,
03.804,2.422298375,,,
03.806,2.497873103,,,
03.808,2.1653443,,,
03.810,2.135114408,,,
03.812,2.180459245,,,
03.814,2.210689136,,,
03.816,2.180459245,,,
03.818,2.210689136,,,
03.820,2.437413321,,,
03.822,2.361838593,,,
03.824,2.407183429,,,
03.826,2.286263864,,,
03.828,2.150229354,,,
03.830,2.1653443,,,
03.832,2.104884517,,,
03.834,2.119999463,,,
03.836,2.240919028,,,
03.838,2.240919028,,,
03.840,2.331608701,,,
03.842,2.528102994,,,
03.844,2.482758158,,,
03.846,2.482758158,,,
03.848,2.119999463,,,
03.850,2.089769571,,,
03.852,2.150229354,,,
03.854,2.089769571,,,
03.856,2.135114408,,,
03.858,2.497873103,,,
03.860,2.467643212,,,
03.862,2.331608701,,,
03.864,2.467643212,,,
03.866,2.467643212,,,
03.868,2.180459245,,,
03.870,2.150229354,,,
03.872,2.180459245,,,
03.874,2.135114408,,,
03.876,2.240919028,,,
03.878,2.512988049,,,
03.880,2.361838593,,,
03.882,2.512988049,,,
03.884,2.558332886,,,
03.886,2.452528266,,,
03.888,2.05953968,,,
03.890,2.044424735,,,
03.892,2.180459245,,,
03.894,2.1653443,,,
03.896,2.1653443,,,
03.898,2.467643212,,,
03.900,2.528102994,,,
03.902,2.512988049,,,
03.904,2.361838593,,,
03.906,2.225804082,,,
03.908,2.210689136,,,
03.910,2.150229354,,,
03.912,2.135114408,,,
03.914,2.074654626,,,
03.916,2.195574191,,,
03.918,2.361838593,,,
03.920,2.452528266,,,
03.922,2.361838593,,,
03.924,2.286263864,,,
03.926,2.225804082,,,
03.928,2.119999463,,,
03.930,2.119999463,,,
03.932,2.135114408,,,
03.934,2.225804082,,,
03.936,2.30137881,,,
03.938,2.422298375,,,
03.940,2.467643212,,,
03.942,2.422298375,,,
03.944,2.452528266,,,
03.946,2.316493756,,,
03.948,2.150229354,,,
03.950,2.119999463,,,
03.952,2.119999463,,,
03.954,2.104884517,,,
03.956,2.089769571,,,
03.958,2.331608701,,,
03.960,2.437413321,,,
03.962,2.497873103,,,
03.964,2.407183429,,,
03.966,2.195574191,,,
03.968,2.074654626,,,
03.970,2.05953968,,,
03.972,2.044424735,,,
03.974,2.119999463,,,
03.976,2.271148919,,,
03.978,2.361838593,,,
03.980,2.497873103,,,
03.982,2.422298375,,,
03.984,2.497873103,,,
03.986,2.256033973,,,
03.988,1.968850007,,,
03.990,2.074654626,,,
03.992,2.104884517,,,
03.994,2.256033973,,,
03.996,2.422298375,,,
03.998,2.528102994,,,
04.000,2.482758158,,,
04.002,2.407183429,,,
04.004,2.482758158,,,
04.006,2.361838593,,,
04.008,2.210689136,,,
04.010,2.180459245,,,
04.012,2.180459245,,,
04.014,2.271148919,,,
04.016,2.346723647,,,
04.018,2.497873103,,,
04.020,2.633907614,,,
04.022,2.603677722,,,
04.024,2.694367396,,,
04.026,2.316493756,,,
04.028,2.014194843,,,
04.030,2.195574191,,,
04.032,2.256033973,,,
04.034,2.286263864,,,
04.036,2.376953538,,,
04.038,2.558332886,,,
04.040,2.573447831,,,
04.042,2.437413321,,,
04.044,2.210689136,,,
04.046,2.135114408,,,
04.048,2.1653443,,,
04.050,2.135114408,,,
04.052,2.044424735,,,
04.054,2.074654626,,,
04.056,2.316493756,,,
04.058,2.376953538,,,
04.060,2.376953538,,,
04.062,2.316493756,,,
04.064,2.30137881,,,
04.066,2.1653443,,,
04.068,2.135114408,,,
04.070,2.044424735,,,
04.072,2.05953968,,,
04.074,2.135114408,,,
04.076,2.361838593,,,
04.078,2.331608701,,,
04.080,2.361838593,,,
04.082,2.346723647,,,
04.084,2.30137881,,,
04.086,2.119999463,,,
04.088,2.074654626,,,
04.090,2.029309789,,,
04.092,2.014194843,,,
04.094,1.968850007,,,
04.096,2.286263864,,,
04.098,2.089769571,,,
04.100,2.316493756,,,
04.102,2.331608701,,,
04.104,2.195574191,,,
04.106,1.953735061,,,
04.108,1.983964952,,,
04.110,2.05953968,,,
04.112,2.014194843,,,
04.114,2.074654626,,,
04.116,2.225804082,,,
04.118,2.225804082,,,
04.120,2.346723647,,,
04.122,2.30137881,,,
04.124,2.271148919,,,
04.126,2.074654626,,,
04.128,1.983964952,,,
04.130,1.938620115,,,
04.132,2.014194843,,,
04.134,2.044424735,,,
04.136,2.195574191,,,
04.138,2.210689136,,,
04.140,2.30137881,,,
04.142,2.331608701,,,
04.144,2.150229354,,,
04.146,1.999079898,,,
04.148,1.968850007,,,
04.150,1.908390224,,,
04.152,1.81770055,,,
04.154,1.938620115,,,
04.156,2.104884517,,,
04.158,2.271148919,,,
04.160,2.467643212,,,
04.162,2.558332886,,,
04.164,2.709482342,,,
04.166,2.588562777,,,
04.168,2.694367396,,,
04.170,2.92109158,,,
04.172,3.057126091,,,
04.174,3.314080166,,,
04.176,4.02448261,,,
04.178,4.387241305,,,
04.180,4.493045925,,,
04.182,4.417471196,,,
04.184,4.311666577,,,
04.186,3.903563045,,,
04.188,3.661723916,,,
04.190,3.419884786,,,
04.192,3.147815765,,,
04.194,2.951321472,,,
04.196,2.664137505,,,
04.198,2.528102994,,,
04.200,2.119999463,,,
04.202,1.968850007,,,
04.204,1.968850007,,,
04.206,1.832815496,,,
04.208,1.787470659,,,
04.210,1.832815496,,,
04.212,1.953735061,,,
04.214,2.05953968,,,
04.216,2.316493756,,,
04.218,2.392068484,,,
04.220,2.482758158,,,
04.222,2.407183429,,,
04.224,2.180459245,,,
04.226,2.089769571,,,
04.228,2.044424735,,,
04.230,2.104884517,,,
04.232,2.074654626,,,
04.234,2.135114408,,,
04.236,2.210689136,,,
04.238,2.30137881,,,
04.240,2.467643212,,,
04.242,2.467643212,,,
04.244,2.346723647,,,
04.246,2.074654626,,,
04.248,2.029309789,,,
04.250,2.089769571,,,
04.252,2.044424735,,,
04.254,2.225804082,,,
04.256,2.346723647,,,
04.258,2.346723647,,,
04.260,2.437413321,,,
04.262,2.452528266,,,
04.264,2.346723647,,,
04.266,2.195574191,,,
04.268,2.089769571,,,
04.270,2.119999463,,,
04.272,2.1653443,,,
04.274,2.346723647,,,
04.276,2.482758158,,,
04.278,2.452528266,,,
04.280,2.422298375,,,
04.282,2.407183429,,,
04.284,2.331608701,,,
04.286,2.256033973,,,
04.288,2.1653443,,,
04.290,2.119999463,,,
04.292,2.119999463,,,
04.294,2.30137881,,,
04.296,2.392068484,,,
04.298,2.497873103,,,
04.300,2.452528266,,,
04.302,2.512988049,,,
04.304,2.407183429,,,
04.306,2.346723647,,,
04.308,2.240919028,,,
04.310,2.195574191,,,
04.312,2.225804082,,,
04.314,2.497873103,,,
04.316,2.528102994,,,
04.318,2.512988049,,,
04.320,2.528102994,,,
04.322,2.392068484,,,
04.324,2.271148919,,,
04.326,2.30137881,,,
04.328,2.286263864,,,
04.330,2.346723647,,,
04.332,2.331608701,,,
04.334,2.437413321,,,
04.336,2.633907614,,,
04.338,2.664137505,,,
04.340,2.679252451,,,
04.342,2.633907614,,,
04.344,2.482758158,,,
04.346,2.422298375,,,
04.348,2.392068484,,,
04.350,2.331608701,,,
04.352,2.331608701,,,
04.354,2.664137505,,,
04.356,2.78505707,,,
04.358,2.800172015,,,
04.360,2.739712233,,,
04.362,2.78505707,,,
04.364,2.618792668,,,
04.366,2.558332886,,,
04.368,2.558332886,,,
04.370,2.558332886,,,
04.372,2.709482342,,,
04.374,2.890861689,,,
04.376,3.072241037,,,
04.378,2.875746744,,,
04.380,2.981551363,,,
04.382,3.042011145,,,
04.384,2.845516852,,,
04.386,2.754827179,,,
04.388,2.769942124,,,
04.390,2.739712233,,,
04.392,2.845516852,,,
04.394,3.042011145,,,
04.396,3.147815765,,,
04.398,3.223390493,,,
04.400,3.117585873,,,
04.402,3.087355982,,,
04.404,2.966436417,,,
04.406,2.890861689,,,
04.408,2.875746744,,,
04.410,2.830401907,,,
04.412,2.815286961,,,
04.414,2.966436417,,,
04.416,3.0268962,,,
04.418,3.042011145,,,
04.420,3.102470928,,,
04.422,2.996666308,,,
04.424,2.845516852,,,
04.426,2.664137505,,,
04.428,2.679252451,,,
04.430,2.633907614,,,
04.432,2.694367396,,,
04.434,2.905976635,,,
04.436,2.890861689,,,
04.438,2.845516852,,,
04.440,2.724597287,,,
04.442,2.754827179,,,
04.444,2.437413321,,,
04.446,2.316493756,,,
04.448,2.271148919,,,
04.450,2.422298375,,,
04.452,2.195574191,,,
04.454,2.452528266,,,
04.456,2.618792668,,,
04.458,2.633907614,,,
04.460,2.558332886,,,
04.462,2.361838593,,,
04.464,2.195574191,,,
04.466,2.135114408,,,
04.468,2.119999463,,,
04.470,2.256033973,,,
04.472,2.240919028,,,
04.474,2.376953538,,,
04.476,2.346723647,,,
04.478,2.407183429,,,
04.480,2.240919028,,,
04.482,2.30137881,,,
04.484,2.150229354,,,
04.486,2.089769571,,,
04.488,2.074654626,,,
04.490,2.089769571,,,
04.492,2.029309789,,,
04.494,2.30137881,,,
04.496,2.422298375,,,
04.498,2.422298375,,,
04.500,2.316493756,,,
04.502,2.286263864,,,
04.504,2.119999463,,,
04.506,2.089769571,,,
04.508,2.119999463,,,
04.510,2.014194843,,,
04.512,2.104884517,,,
04.514,2.331608701,,,
04.516,2.452528266,,,
04.518,2.316493756,,,
04.520,2.331608701,,,
04.522,2.240919028,,,
04.524,2.135114408,,,
04.526,2.05953968,,,
04.528,1.953735061,,,
04.530,1.938620115,,,
04.532,2.150229354,,,
04.534,2.346723647,,,
04.536,2.392068484,,,
04.538,2.286263864,,,
04.540,2.195574191,,,
04.542,2.225804082,,,
04.544,2.119999463,,,
04.546,2.044424735,,,
04.548,2.089769571,,,
04.550,2.180459245,,,
04.552,2.195574191,,,
04.554,2.210689136,,,
04.556,2.316493756,,,
04.558,2.392068484,,,
04.560,2.407183429,,,
04.562,2.346723647,,,
04.564,2.089769571,,,
04.566,2.044424735,,,
04.568,1.983964952,,,
04.570,2.119999463,,,
04.572,2.286263864,,,
04.574,2.452528266,,,
04.576,2.437413321,,,
04.578,2.361838593,,,
04.580,2.361838593,,,
04.582,2.30137881,,,
04.584,2.210689136,,,
04.586,2.195574191,,,
04.588,2.180459245,,,
04.590,2.1653443,,,
04.592,2.119999463,,,
04.594,2.392068484,,,
04.596,2.482758158,,,
04.598,2.376953538,,,
04.600,2.422298375,,,
04.602,2.286263864,,,
04.604,2.119999463,,,
04.606,2.074654626,,,
04.608,2.150229354,,,
04.610,2.1653443,,,
04.612,2.316493756,,,
04.614,2.331608701,,,
04.616,2.316493756,,,
04.618,2.376953538,,,
04.620,2.376953538,,,
04.622,2.225804082,,,
04.624,2.119999463,,,
04.626,2.119999463,,,
04.628,2.074654626,,,
04.630,2.044424735,,,
04.632,2.316493756,,,
04.634,2.256033973,,,
04.636,2.256033973,,,
04.638,2.422298375,,,
04.640,2.422298375,,,
04.642,2.119999463,,,
04.644,2.104884517,,,
04.646,2.150229354,,,
04.648,2.180459245,,,
04.650,2.225804082,,,
04.652,2.331608701,,,
04.654,2.467643212,,,
04.656,2.437413321,,,
04.658,2.286263864,,,
04.660,2.331608701,,,
04.662,2.135114408,,,
04.664,2.135114408,,,
04.666,2.044424735,,,
04.668,2.104884517,,,
04.670,1.92350517,,,
04.672,2.074654626,,,
04.674,2.256033973,,,
04.676,2.346723647,,,
04.678,2.407183429,,,
04.680,2.361838593,,,
04.682,2.150229354,,,
04.684,2.150229354,,,
04.686,2.150229354,,,
04.688,2.104884517,,,
04.690,2.029309789,,,
04.692,2.271148919,,,
04.694,2.452528266,,,
04.696,2.271148919,,,
04.698,2.271148919,,,
04.700,2.30137881,,,
04.702,2.044424735,,,
04.704,1.968850007,,,
04.706,1.968850007,,,
04.708,2.074654626,,,
04.710,2.180459245,,,
04.712,2.346723647,,,
04.714,2.528102994,,,
04.716,2.54321794,,,
04.718,2.452528266,,,
04.720,2.422298375,,,
04.722,2.225804082,,,
04.724,2.180459245,,,
04.726,2.1653443,,,
04.728,2.240919028,,,
04.730,2.180459245,,,
04.732,2.331608701,,,
04.734,2.422298375,,,
04.736,2.407183429,,,
04.738,2.361838593,,,
04.740,2.407183429,,,
04.742,2.180459245,,,
04.744,2.014194843,,,
04.746,1.968850007,,,
04.748,2.180459245,,,
04.750,2.30137881,,,
04.752,2.528102994,,,
04.754,2.633907614,,,
04.756,2.588562777,,,
04.758,2.467643212,,,
04.760,2.331608701,,,
04.762,2.150229354,,,
04.764,2.271148919,,,
04.766,2.271148919,,,
04.768,2.210689136,,,
04.770,2.30137881,,,
04.772,2.54321794,,,
04.774,2.618792668,,,
04.776,2.528102994,,,
04.778,2.361838593,,,
04.780,2.286263864,,,
04.782,2.089769571,,,
04.784,2.044424735,,,
04.786,2.089769571,,,
04.788,2.104884517,,,
04.790,2.195574191,,,
04.792,2.361838593,,,
04.794,2.376953538,,,
04.796,2.407183429,,,
04.798,2.392068484,,,
04.800,2.316493756,,,
04.802,2.135114408,,,
04.804,1.968850007,,,
04.806,1.983964952,,,
04.808,2.074654626,,,
04.810,2.05953968,,,
04.812,2.1653443,,,
04.814,2.256033973,,,
04.816,2.407183429,,,
04.818,2.376953538,,,
04.820,2.256033973,,,
04.822,2.044424735,,,
04.824,2.074654626,,,
04.826,1.999079898,,,
04.828,1.878160333,,,
04.830,1.968850007,,,
04.832,2.180459245,,,
04.834,2.316493756,,,
04.836,2.256033973,,,
04.838,2.271148919,,,
04.840,2.225804082,,,
04.842,1.953735061,,,
04.844,1.908390224,,,
04.846,1.968850007,,,
04.848,2.089769571,,,
04.850,2.150229354,,,
04.852,2.346723647,,,
04.854,2.271148919,,,
04.856,2.331608701,,,
04.858,2.195574191,,,
04.860,2.180459245,,,
04.862,2.044424735,,,
04.864,2.05953968,,,
04.866,1.953735061,,,
04.868,1.983964952,,,
04.870,2.029309789,,,
04.872,2.256033973,,,
04.874,2.316493756,,,
04.876,2.180459245,,,
04.878,2.210689136,,,
04.880,2.014194843,,,
04.882,1.893275278,,,
04.884,1.908390224,,,
04.886,1.938620115,,,
04.888,1.81770055,,,
04.890,1.92350517,,,
04.892,2.210689136,,,
04.894,2.316493756,,,
04.896,2.437413321,,,
04.898,2.588562777,,,
04.900,2.573447831,,,
04.902,2.694367396,,,
04.904,2.860631798,,,
04.906,3.087355982,,,
04.908,3.208275547,,,
04.910,3.465229623,,,
04.912,4.115172284,,,
04.914,4.583735598,,,
04.916,4.568620653,,,
04.918,4.493045925,,,
04.920,4.175632067,,,
04.922,3.948907882,,,
04.924,3.737298644,,,
04.926,3.465229623,,,
04.928,3.223390493,,,
04.930,3.057126091,,,
04.932,2.845516852,,,
04.934,2.558332886,,,
04.936,2.195574191,,,
04.938,2.014194843,,,
04.940,1.893275278,,,
04.942,1.878160333,,,
04.944,1.908390224,,,
04.946,2.029309789,,,
04.948,2.135114408,,,
04.950,2.225804082,,,
04.952,2.392068484,,,
04.954,2.346723647,,,
04.956,2.422298375,,,
04.958,2.452528266,,,
04.960,2.210689136,,,
04.962,2.150229354,,,
04.964,2.029309789,,,
04.966,1.983964952,,,
04.968,2.089769571,,,
04.970,2.286263864,,,
04.972,2.331608701,,,
04.974,2.376953538,,,
04.976,2.392068484,,,
04.978,2.422298375,,,
04.980,2.225804082,,,
04.982,2.150229354,,,
04.984,2.1653443,,,
04.986,2.150229354,,,
04.988,2.286263864,,,
04.990,2.376953538,,,
04.992,2.361838593,,,
04.994,2.437413321,,,
04.996,2.467643212,,,
04.998,2.392068484,,,
05.000,2.271148919,,,
05.002,2.150229354,,,
05.004,2.135114408,,,
05.006,2.195574191,,,
05.008,2.271148919,,,
05.010,2.392068484,,,
05.012,2.54321794,,,
05.014,2.528102994,,,
05.016,2.452528266,,,
05.018,2.512988049,,,
05.020,2.376953538,,,
05.022,2.346723647,,,
05.024,2.210689136,,,
05.026,2.135114408,,,
05.028,2.256033973,,,
05.030,2.437413321,,,
05.032,2.558332886,,,
05.034,2.407183429,,,
05.036,2.437413321,,,
05.038,2.467643212,,,
05.040,2.30137881,,,
05.042,2.286263864,,,
05.044,2.271148919,,,
05.046,2.346723647,,,
05.048,2.346723647,,,
05.050,2.497873103,,,
05.052,2.558332886,,,
05.054,2.679252451,,,
05.056,2.649022559,,,
05.058,2.633907614,,,
05.060,2.376953538,,,
05.062,2.361838593,,,
05.064,2.316493756,,,
05.066,2.407183429,,,
05.068,2.588562777,,,
05.070,2.467643212,,,
05.072,2.679252451,,,
05.074,2.633907614,,,
05.076,2.603677722,,,
05.078,2.603677722,,,
05.080,2.452528266,,,
05.082,2.452528266,,,
05.084,2.467643212,,,
05.086,2.588562777,,,
05.088,2.679252451,,,
05.090,2.860631798,,,
05.092,2.890861689,,,
05.094,2.890861689,,,
05.096,2.890861689,,,
05.098,2.845516852,,,
05.100,2.603677722,,,
05.102,2.573447831,,,
05.104,2.573447831,,,
05.106,2.679252451,,,
05.108,2.875746744,,,
05.110,3.011781254,,,
05.112,3.087355982,,,
05.114,3.102470928,,,
05.116,3.087355982,,,
05.118,3.0268962,,,
05.120,3.0268962,,,
05.122,2.890861689,,,
05.124,2.769942124,,,
05.126,2.754827179,,,
05.128,3.117585873,,,
05.130,3.26873533,,,
05.132,3.298965221,,,
05.134,3.314080166,,,
05.136,3.26873533,,,
05.138,3.178045656,,,
05.140,3.011781254,,,
05.142,2.860631798,,,
05.144,2.92109158,,,
05.146,2.996666308,,,
05.148,3.057126091,,,
05.150,3.16293071,,,
05.152,3.283850275,,,
05.154,3.253620384,,,
05.156,3.253620384,,,
05.158,3.057126091,,,
05.160,2.936206526,,,
05.162,2.845516852,,,
05.164,2.815286961,,,
05.166,2.815286961,,,
05.168,2.830401907,,,
05.170,2.860631798,,,
05.172,2.966436417,,,
05.174,2.92109158,,,
05.176,2.815286961,,,
05.178,2.618792668,,,
05.180,2.528102994,,,
05.182,2.603677722,,,
05.184,2.452528266,,,
05.186,2.210689136,,,
05.188,2.588562777,,,
05.190,2.724597287,,,
05.192,2.78505707,,,
05.194,2.694367396,,,
05.196,2.679252451,,,
05.198,2.54321794,,,
05.200,2.422298375,,,
05.202,2.240919028,,,
05.204,2.240919028,,,
05.206,2.240919028,,,
05.208,2.452528266,,,
05.210,2.573447831,,,
05.212,2.497873103,,,
05.214,2.467643212,,,
05.216,2.482758158,,,
05.218,2.346723647,,,
05.220,2.210689136,,,
05.222,2.1653443,,,
05.224,2.240919028,,,
05.226,2.210689136,,,
05.228,2.482758158,,,
05.230,2.482758158,,,
05.232,2.573447831,,,
05.234,2.497873103,,,
05.236,2.346723647,,,
05.238,2.316493756,,,
05.240,2.150229354,,,
05.242,2.135114408,,,
05.244,2.195574191,,,
05.246,2.195574191,,,
05.248,2.422298375,,,
05.250,2.482758158,,,
05.252,2.512988049,,,
05.254,2.588562777,,,
05.256,2.588562777,,,
05.258,2.1653443,,,
05.260,2.135114408,,,
05.262,2.225804082,,,
05.264,2.240919028,,,
05.266,2.225804082,,,
05.268,2.346723647,,,
05.270,2.422298375,,,
05.272,2.512988049,,,
05.274,2.528102994,,,
05.276,2.452528266,,,
05.278,2.331608701,,,
05.280,2.286263864,,,
05.282,2.225804082,,,
05.284,2.286263864,,,
05.286,2.331608701,,,
05.288,2.512988049,,,
05.290,2.482758158,,,
05.292,2.558332886,,,
05.294,2.528102994,,,
05.296,2.512988049,,,
05.298,2.346723647,,,
05.300,2.271148919,,,
05.302,2.180459245,,,
05.304,2.225804082,,,
05.306,2.256033973,,,
05.308,2.437413321,,,
05.310,2.497873103,,,
05.312,2.573447831,,,
05.314,2.573447831,,,
05.316,2.558332886,,,
05.318,2.240919028,,,
05.320,2.210689136,,,
05.322,2.256033973,,,
05.324,2.286263864,,,
05.326,2.331608701,,,
05.328,2.573447831,,,
05.330,2.618792668,,,
05.332,2.664137505,,,
05.334,2.54321794,,,
05.336,2.54321794,,,
05.338,2.452528266,,,
05.340,2.210689136,,,
05.342,2.1653443,,,
05.344,2.256033973,,,
05.346,2.286263864,,,
05.348,2.54321794,,,
05.350,2.603677722,,,
05.352,2.573447831,,,
05.354,2.467643212,,,
05.356,2.528102994,,,
05.358,2.240919028,,,
05.360,2.225804082,,,
05.362,2.256033973,,,
05.364,2.392068484,,,
05.366,2.316493756,,,
05.368,2.588562777,,,
05.370,2.618792668,,,
05.372,2.588562777,,,
05.374,2.54321794,,,
05.376,2.528102994,,,
05.378,2.407183429,,,
05.380,2.361838593,,,
05.382,2.210689136,,,
05.384,2.104884517,,,
05.386,2.271148919,,,
05.388,2.54321794,,,
05.390,2.618792668,,,
05.392,2.437413321,,,
05.394,2.452528266,,,
05.396,2.437413321,,,
05.398,2.331608701,,,
05.400,2.30137881,,,
05.402,2.180459245,,,
05.404,2.316493756,,,
05.406,2.437413321,,,
05.408,2.512988049,,,
05.410,2.452528266,,,
05.412,2.392068484,,,
05.414,2.482758158,,,
05.416,2.482758158,,,
05.418,2.271148919,,,
05.420,2.210689136,,,
05.422,2.195574191,,,
05.424,2.240919028,,,
05.426,2.361838593,,,
05.428,2.54321794,,,
05.430,2.588562777,,,
05.432,2.618792668,,,
05.434,2.528102994,,,
05.436,2.407183429,,,
05.438,2.240919028,,,
05.440,2.30137881,,,
05.442,2.135114408,,,
05.444,2.256033973,,,
05.446,2.422298375,,,
05.448,2.618792668,,,
05.450,2.618792668,,,
05.452,2.528102994,,,
05.454,2.452528266,,,
05.456,2.422298375,,,
05.458,2.30137881,,,
05.460,2.256033973,,,
05.462,2.271148919,,,
05.464,2.089769571,,,
05.466,2.361838593,,,
05.468,2.437413321,,,
05.470,2.497873103,,,
05.472,2.603677722,,,
05.474,2.467643212,,,
05.476,2.392068484,,,
05.478,2.346723647,,,
05.480,2.30137881,,,
05.482,2.210689136,,,
05.484,2.316493756,,,
05.486,2.452528266,,,
05.488,2.497873103,,,
05.490,2.54321794,,,
05.492,2.467643212,,,
05.494,2.422298375,,,
05.496,2.30137881,,,
05.498,2.240919028,,,
05.500,2.316493756,,,
05.502,2.240919028,,,
05.504,2.271148919,,,
05.506,2.467643212,,,
05.508,2.467643212,,,
05.510,2.497873103,,,
05.512,2.649022559,,,
05.514,2.512988049,,,
05.516,2.392068484,,,
05.518,2.361838593,,,
05.520,2.316493756,,,
05.522,2.376953538,,,
05.524,2.346723647,,,
05.526,2.573447831,,,
05.528,2.649022559,,,
05.530,2.664137505,,,
05.532,2.573447831,,,
05.534,2.603677722,,,
05.536,2.437413321,,,
05.538,2.286263864,,,
05.540,2.225804082,,,
05.542,2.210689136,,,
05.544,2.346723647,,,
05.546,2.694367396,,,
05.548,2.769942124,,,
05.550,2.754827179,,,
05.552,2.769942124,,,
05.554,2.78505707,,,
05.556,2.633907614,,,
05.558,2.497873103,,,
05.560,2.286263864,,,
05.562,2.271148919,,,
05.564,2.467643212,,,
05.566,2.558332886,,,
05.568,2.724597287,,,
05.570,2.769942124,,,
05.572,2.679252451,,,
05.574,2.649022559,,,
05.576,2.407183429,,,
05.578,2.225804082,,,
05.580,2.286263864,,,
05.582,2.407183429,,,
05.584,2.422298375,,,
05.586,2.497873103,,,
05.588,2.512988049,,,
05.590,2.588562777,,,
05.592,2.603677722,,,
05.594,2.497873103,,,
05.596,2.271148919,,,
05.598,2.195574191,,,
05.600,2.210689136,,,
05.602,2.271148919,,,
05.604,2.30137881,,,
05.606,2.482758158,,,
05.608,2.558332886,,,
05.610,2.558332886,,,
05.612,2.286263864,,,
05.614,2.271148919,,,
05.616,2.346723647,,,
05.618,2.316493756,,,
05.620,2.256033973,,,
05.622,2.256033973,,,
05.624,2.271148919,,,
05.626,2.497873103,,,
05.628,2.528102994,,,
05.630,2.588562777,,,
05.632,2.497873103,,,
05.634,2.437413321,,,
05.636,2.195574191,,,
05.638,2.195574191,,,
05.640,2.225804082,,,
05.642,2.150229354,,,
05.644,2.180459245,,,
05.646,2.271148919,,,
05.648,2.497873103,,,
05.650,2.54321794,,,
05.652,2.573447831,,,
05.654,2.482758158,,,
05.656,2.256033973,,,
05.658,2.180459245,,,
05.660,2.225804082,,,
05.662,2.135114408,,,
05.664,2.30137881,,,
05.666,2.482758158,,,
05.668,2.482758158,,,
05.670,2.452528266,,,
05.672,2.467643212,,,
05.674,2.392068484,,,
05.676,2.210689136,,,
05.678,2.1653443,,,
05.680,2.135114408,,,
05.682,2.119999463,,,
05.684,2.089769571,,,
05.686,2.346723647,,,
05.688,2.467643212,,,
05.690,2.437413321,,,
05.692,2.376953538,,,
05.694,2.331608701,,,
05.696,2.271148919,,,
05.698,2.361838593,,,
05.700,2.467643212,,,
05.702,2.800172015,,,
05.704,3.057126091,,,
05.706,3.419884786,,,
05.708,3.616379079,,,
05.710,3.8884481,,,
05.712,4.02448261,,,
05.714,4.357011414,,,
05.716,4.50816087,,,
05.718,4.568620653,,,
05.720,4.568620653,,,
05.722,4.341896468,,,
05.724,4.190747012,,,
05.726,4.039597556,,,
05.728,3.812873372,,,
05.730,3.64660897,,,
05.732,3.344310058,,,
05.734,2.92109158,,,
05.736,2.286263864,,,
05.738,2.074654626,,,
05.740,1.953735061,,,
05.742,1.92350517,,,
05.744,2.225804082,,,
05.746,2.497873103,,,
05.748,2.573447831,,,
05.750,2.558332886,,,
05.752,2.528102994,,,
05.754,2.528102994,,,
05.756,2.422298375,,,
05.758,2.30137881,,,
05.760,2.346723647,,,
05.762,2.407183429,,,
05.764,2.467643212,,,
05.766,2.512988049,,,
05.768,2.54321794,,,
05.770,2.512988049,,,
05.772,2.573447831,,,
05.774,2.528102994,,,
05.776,2.331608701,,,
05.778,2.256033973,,,
05.780,2.256033973,,,
05.782,2.407183429,,,
05.784,2.54321794,,,
05.786,2.618792668,,,
05.788,2.679252451,,,
05.790,2.558332886,,,
05.792,2.633907614,,,
05.794,2.512988049,,,
05.796,2.422298375,,,
05.798,2.346723647,,,
05.800,2.392068484,,,
05.802,2.467643212,,,
05.804,2.618792668,,,
05.806,2.679252451,,,
05.808,2.739712233,,,
05.810,2.664137505,,,
05.812,2.633907614,,,
05.814,2.573447831,,,
05.816,2.407183429,,,
05.818,2.316493756,,,
05.820,2.437413321,,,
05.822,2.437413321,,,
05.824,2.528102994,,,
05.826,2.815286961,,,
05.828,2.905976635,,,
05.830,2.754827179,,,
05.832,2.452528266,,,
05.834,2.376953538,,,
05.836,2.482758158,,,
05.838,2.467643212,,,
05.840,2.482758158,,,
05.842,2.54321794,,,
05.844,2.618792668,,,
05.846,2.800172015,,,
05.848,2.815286961,,,
05.850,2.830401907,,,
05.852,2.724597287,,,
05.854,2.588562777,,,
05.856,2.558332886,,,
05.858,2.467643212,,,
05.860,2.528102994,,,
05.862,2.558332886,,,
05.864,2.830401907,,,
05.866,2.815286961,,,
05.868,2.860631798,,,
05.870,2.936206526,,,
05.872,2.754827179,,,
05.874,2.603677722,,,
05.876,2.558332886,,,
05.878,2.573447831,,,
05.880,2.649022559,,,
05.882,2.694367396,,,
05.884,2.845516852,,,
05.886,2.996666308,,,
05.888,3.0268962,,,
05.890,3.042011145,,,
05.892,3.042011145,,,
05.894,2.890861689,,,
05.896,2.754827179,,,
05.898,2.754827179,,,
05.900,2.679252451,,,
05.902,2.815286961,,,
05.904,2.92109158,,,
05.906,3.057126091,,,
05.908,3.072241037,,,
05.910,3.16293071,,,
05.912,3.26873533,,,
05.914,3.057126091,,,
05.916,2.996666308,,,
05.918,3.011781254,,,
05.920,3.102470928,,,
05.922,3.147815765,,,
05.924,3.238505438,,,
05.926,3.344310058,,,
05.928,3.419884786,,,
05.930,3.344310058,,,
05.932,3.419884786,,,
05.934,3.253620384,,,
05.936,3.238505438,,,
05.938,3.117585873,,,
05.940,3.147815765,,,
05.942,3.193160601,,,
05.944,3.419884786,,,
05.946,3.510574459,,,
05.948,3.525689405,,,
05.950,3.495459514,,,
05.952,3.389654895,,,
05.954,3.26873533,,,
05.956,3.147815765,,,
05.958,3.057126091,,,
05.960,3.042011145,,,
05.962,3.102470928,,,
05.964,3.283850275,,,
05.966,3.283850275,,,
05.968,3.253620384,,,
05.970,3.314080166,,,
05.972,3.16293071,,,
05.974,2.875746744,,,
05.976,2.724597287,,,
05.978,2.739712233,,,
05.980,2.709482342,,,
05.982,2.815286961,,,
05.984,2.936206526,,,
05.986,2.981551363,,,
05.988,2.996666308,,,
05.990,2.951321472,,,
05.992,2.78505707,,,
05.994,2.603677722,,,
05.996,2.497873103,,,
05.998,2.467643212,,,
06.000,2.467643212,,,
06.002,2.573447831,,,
06.004,2.769942124,,,
06.006,2.800172015,,,
06.008,2.815286961,,,
06.010,2.497873103,,,
06.012,2.588562777,,,
06.014,2.467643212,,,
06.016,2.437413321,,,
06.018,2.392068484,,,
06.020,2.422298375,,,
06.022,2.467643212,,,
06.024,2.664137505,,,
06.026,2.664137505,,,
06.028,2.664137505,,,
06.030,2.664137505,,,
06.032,2.54321794,,,
06.034,2.376953538,,,
06.036,2.286263864,,,
06.038,2.346723647,,,
06.040,2.407183429,,,
06.042,2.407183429,,,
06.044,2.54321794,,,
06.046,2.573447831,,,
06.048,2.649022559,,,
06.050,2.588562777,,,
06.052,2.376953538,,,
06.054,2.331608701,,,
06.056,2.361838593,,,
06.058,2.361838593,,,
06.060,2.407183429,,,
06.062,2.452528266,,,
06.064,2.573447831,,,
06.066,2.618792668,,,
06.068,2.649022559,,,
06.070,2.558332886,,,
06.072,2.512988049,,,
06.074,2.376953538,,,
06.076,2.316493756,,,
06.078,2.286263864,,,
06.080,2.331608701,,,
06.082,2.618792668,,,
06.084,2.679252451,,,
06.086,2.588562777,,,
06.088,2.618792668,,,
06.090,2.679252451,,,
06.092,2.588562777,,,
06.094,2.392068484,,,
06.096,2.316493756,,,
06.098,2.422298375,,,
06.100,2.376953538,,,
06.102,2.633907614,,,
06.104,2.694367396,,,
06.106,2.694367396,,,
06.108,2.633907614,,,
06.110,2.679252451,,,
06.112,2.54321794,,,
06.114,2.195574191,,,
06.116,2.30137881,,,
06.118,2.376953538,,,
06.120,2.437413321,,,
06.122,2.603677722,,,
06.124,2.649022559,,,
06.126,2.54321794,,,
06.128,2.618792668,,,
06.130,2.739712233,,,
06.132,2.528102994,,,
06.134,2.452528266,,,
06.136,2.376953538,,,
06.138,2.316493756,,,
06.140,2.361838593,,,
06.142,2.482758158,,,
06.144,2.709482342,,,
06.146,2.679252451,,,
06.148,2.694367396,,,
06.150,2.664137505,,,
06.152,2.437413321,,,
06.154,2.346723647,,,
06.156,2.286263864,,,
06.158,2.376953538,,,
06.160,2.407183429,,,
06.162,2.573447831,,,
06.164,2.739712233,,,
06.166,2.664137505,,,
06.168,2.649022559,,,
06.170,2.588562777,,,
06.172,2.512988049,,,
06.174,2.467643212,,,
06.176,2.376953538,,,
06.178,2.407183429,,,
06.180,2.361838593,,,
06.182,2.573447831,,,
06.184,2.709482342,,,
06.186,2.724597287,,,
06.188,2.754827179,,,
06.190,2.694367396,,,
06.192,2.467643212,,,
06.194,2.331608701,,,
06.196,2.361838593,,,
06.198,2.316493756,,,
06.200,2.361838593,,,
06.202,2.588562777,,,
06.204,2.679252451,,,
06.206,2.558332886,,,
06.208,2.588562777,,,
06.210,2.54321794,,,
06.212,2.437413321,,,
06.214,2.346723647,,,
06.216,2.286263864,,,
06.218,2.407183429,,,
06.220,2.452528266,,,
06.222,2.618792668,,,
06.224,2.573447831,,,
06.226,2.603677722,,,
06.228,2.588562777,,,
06.230,2.482758158,,,
06.232,2.30137881,,,
06.234,2.240919028,,,
06.236,2.30137881,,,
06.238,2.195574191,,,
06.240,2.422298375,,,
06.242,2.709482342,,,
06.244,2.739712233,,,
06.246,2.769942124,,,
06.248,2.649022559,,,
06.250,2.664137505,,,
06.252,2.392068484,,,
06.254,2.361838593,,,
06.256,2.316493756,,,
06.258,2.392068484,,,
06.260,2.407183429,,,
06.262,2.603677722,,,
06.264,2.649022559,,,
06.266,2.664137505,,,
06.268,2.649022559,,,
06.270,2.618792668,,,
06.272,2.467643212,,,
06.274,2.376953538,,,
06.276,2.346723647,,,
06.278,2.30137881,,,
06.280,2.256033973,,,
06.282,2.528102994,,,
06.284,2.633907614,,,
06.286,2.588562777,,,
06.288,2.679252451,,,
06.290,2.528102994,,,
06.292,2.331608701,,,
06.294,2.271148919,,,
06.296,2.30137881,,,
06.298,2.331608701,,,
06.300,2.482758158,,,
06.302,2.633907614,,,
06.304,2.573447831,,,
06.306,2.603677722,,,
06.308,2.649022559,,,
06.310,2.54321794,,,
06.312,2.376953538,,,
06.314,2.271148919,,,
06.316,2.271148919,,,
06.318,2.361838593,,,
06.320,2.407183429,,,
06.322,2.603677722,,,
06.324,2.664137505,,,
06.326,2.709482342,,,
06.328,2.664137505,,,
06.330,2.512988049,,,
06.332,2.376953538,,,
06.334,2.346723647,,,
06.336,2.331608701,,,
06.338,2.225804082,,,
06.340,2.392068484,,,
06.342,2.603677722,,,
06.344,2.679252451,,,
06.346,2.78505707,,,
06.348,2.724597287,,,
06.350,2.573447831,,,
06.352,2.392068484,,,
06.354,2.210689136,,,
06.356,2.240919028,,,
06.358,2.30137881,,,
06.360,2.437413321,,,
06.362,2.664137505,,,
06.364,2.664137505,,,
06.366,2.618792668,,,
06.368,2.633907614,,,
06.370,2.437413321,,,
06.372,2.30137881,,,
06.374,2.180459245,,,
06.376,2.30137881,,,
06.378,2.271148919,,,
06.380,2.54321794,,,
06.382,2.633907614,,,
06.384,2.694367396,,,
06.386,2.618792668,,,
06.388,2.649022559,,,
06.390,2.497873103,,,
06.392,2.346723647,,,
06.394,2.195574191,,,
06.396,2.331608701,,,
06.398,2.437413321,,,
06.400,2.437413321,,,
06.402,2.603677722,,,
06.404,2.618792668,,,
06.406,2.679252451,,,
06.408,2.618792668,,,
06.410,2.331608701,,,
06.412,2.225804082,,,
06.414,2.225804082,,,
06.416,2.1653443,,,
06.418,2.331608701,,,
06.420,2.573447831,,,
06.422,2.709482342,,,
06.424,2.709482342,,,
06.426,2.649022559,,,
06.428,2.588562777,,,
06.430,2.482758158,,,
06.432,2.437413321,,,
06.434,2.331608701,,,
06.436,2.316493756,,,
06.438,2.392068484,,,
06.440,2.664137505,,,
06.442,2.800172015,,,
06.444,2.754827179,,,
06.446,2.800172015,,,
06.448,2.679252451,,,
06.450,2.497873103,,,
06.452,2.316493756,,,
06.454,2.346723647,,,
06.456,2.482758158,,,
06.458,2.497873103,,,
06.460,2.664137505,,,
06.462,2.78505707,,,
06.464,2.890861689,,,
06.466,2.78505707,,,
06.468,2.694367396,,,
06.470,2.512988049,,,
06.472,2.54321794,,,
06.474,2.437413321,,,
06.476,2.54321794,,,
06.478,2.512988049,,,
06.480,2.800172015,,,
06.482,2.845516852,,,
06.484,2.830401907,,,
06.486,2.633907614,,,
06.488,2.724597287,,,
06.490,2.467643212,,,
06.492,2.482758158,,,
06.494,2.437413321,,,
06.496,2.407183429,,,
06.498,2.422298375,,,
06.500,2.603677722,,,
06.502,2.603677722,,,
06.504,2.664137505,,,
06.506,2.603677722,,,
06.508,2.618792668,,,
06.510,2.376953538,,,
06.512,2.316493756,,,
06.514,2.286263864,,,
06.516,2.361838593,,,
06.518,2.346723647,,,
06.520,2.512988049,,,
06.522,2.649022559,,,
06.524,2.724597287,,,
06.526,2.603677722,,,
06.528,2.664137505,,,
06.530,2.422298375,,,
06.532,2.195574191,,,
06.534,2.225804082,,,
06.536,2.316493756,,,
06.538,2.316493756,,,
06.540,2.452528266,,,
06.542,2.664137505,,,
06.544,2.679252451,,,
06.546,2.588562777,,,
06.548,2.452528266,,,
06.550,2.30137881,,,
06.552,2.286263864,,,
06.554,2.256033973,,,
06.556,2.286263864,,,
06.558,2.256033973,,,
06.560,2.618792668,,,
06.562,2.618792668,,,
06.564,2.664137505,,,
06.566,2.573447831,,,
06.568,2.452528266,,,
06.570,2.346723647,,,
06.572,2.225804082,,,
06.574,2.346723647,,,
06.576,2.30137881,,,
06.578,2.361838593,,,
06.580,2.633907614,,,
06.582,2.618792668,,,
06.584,2.588562777,,,
06.586,2.558332886,,,
06.588,2.528102994,,,
06.590,2.286263864,,,
06.592,2.316493756,,,
06.594,2.210689136,,,
06.596,2.30137881,,,
06.598,2.331608701,,,
06.600,2.497873103,,,
06.602,2.482758158,,,
06.604,2.54321794,,,
06.606,2.392068484,,,
06.608,2.331608701,,,
06.610,2.331608701,,,
06.612,2.30137881,,,
06.614,2.437413321,,,
06.616,2.573447831,,,
06.618,2.815286961,,,
06.620,3.102470928,,,
06.622,3.419884786,,,
06.624,3.691953807,,,
06.626,3.858218209,,,
06.628,3.964022828,,,
06.630,4.190747012,,,
06.632,4.402356251,,,
06.634,4.281436686,,,
06.636,4.37212636,,,
06.638,4.341896468,,,
06.640,4.281436686,,,
06.642,4.190747012,,,
06.644,3.918677991,,,
06.646,3.586149188,,,
06.648,3.087355982,,,
06.650,2.482758158,,,
06.652,2.256033973,,,
06.654,2.014194843,,,
06.656,2.074654626,,,
06.658,2.150229354,,,
06.660,2.210689136,,,
06.662,2.316493756,,,
06.664,2.346723647,,,
06.666,2.346723647,,,
06.668,2.407183429,,,
06.670,2.407183429,,,
06.672,2.437413321,,,
06.674,2.392068484,,,
06.676,2.467643212,,,
06.678,2.558332886,,,
06.680,2.679252451,,,
06.682,2.754827179,,,
06.684,2.558332886,,,
06.686,2.497873103,,,
06.688,2.467643212,,,
06.690,2.452528266,,,
06.692,2.346723647,,,
06.694,2.361838593,,,
06.696,2.392068484,,,
06.698,2.54321794,,,
06.700,2.649022559,,,
06.702,2.618792668,,,
06.704,2.769942124,,,
06.706,2.754827179,,,
06.708,2.588562777,,,
06.710,2.437413321,,,
06.712,2.482758158,,,
06.714,2.512988049,,,
06.716,2.573447831,,,
06.718,2.769942124,,,
06.720,2.769942124,,,
06.722,2.588562777,,,
06.724,2.618792668,,,
06.726,2.633907614,,,
06.728,2.588562777,,,
06.730,2.437413321,,,
06.732,2.376953538,,,
06.734,2.422298375,,,
06.736,2.407183429,,,
06.738,2.664137505,,,
06.740,2.800172015,,,
06.742,2.754827179,,,
06.744,2.679252451,,,
06.746,2.664137505,,,
06.748,2.649022559,,,
06.750,2.54321794,,,
06.752,2.558332886,,,
06.754,2.588562777,,,
06.756,2.558332886,,,
06.758,2.830401907,,,
06.760,2.754827179,,,
06.762,2.724597287,,,
06.764,2.78505707,,,
06.766,2.754827179,,,
06.768,2.558332886,,,
06.770,2.649022559,,,
06.772,2.573447831,,,
06.774,2.679252451,,,
06.776,2.709482342,,,
06.778,2.875746744,,,
06.780,3.011781254,,,
06.782,2.966436417,,,
06.784,2.709482342,,,
06.786,2.754827179,,,
06.788,2.679252451,,,
06.790,2.633907614,,,
06.792,2.618792668,,,
06.794,2.694367396,,,
06.796,2.694367396,,,
06.798,2.936206526,,,
06.800,3.042011145,,,
06.802,2.951321472,,,
06.804,2.905976635,,,
06.806,2.966436417,,,
06.808,2.890861689,,,
06.810,2.815286961,,,
06.812,2.78505707,,,
06.814,2.860631798,,,
06.816,2.845516852,,,
06.818,2.951321472,,,
06.820,3.208275547,,,
06.822,3.26873533,,,
06.824,3.283850275,,,
06.826,3.193160601,,,
06.828,3.117585873,,,
06.830,2.890861689,,,
06.832,2.92109158,,,
06.834,3.132700819,,,
06.836,3.117585873,,,
06.838,3.359425003,,,
06.840,3.344310058,,,
06.842,3.389654895,,,
06.844,3.480344568,,,
06.846,3.450114677,,,
06.848,3.072241037,,,
06.850,3.132700819,,,
06.852,3.147815765,,,
06.854,3.208275547,,,
06.856,3.208275547,,,
06.858,3.374539949,,,
06.860,3.510574459,,,
06.862,3.540804351,,,
06.864,3.555919296,,,
06.866,3.450114677,,,
06.868,3.193160601,,,
06.870,3.057126091,,,
06.872,3.057126091,,,
06.874,3.117585873,,,
06.876,3.253620384,,,
06.878,3.40476984,,,
06.880,3.40476984,,,
06.882,3.223390493,,,
06.884,3.208275547,,,
06.886,3.132700819,,,
06.888,3.057126091,,,
06.890,3.057126091,,,
06.892,2.875746744,,,
06.894,2.890861689,,,
06.896,2.845516852,,,
06.898,3.0268962,,,
06.900,3.147815765,,,
06.902,3.042011145,,,
06.904,3.072241037,,,
06.906,2.815286961,,,
06.908,2.633907614,,,
06.910,2.603677722,,,
06.912,2.603677722,,,
06.914,2.649022559,,,
06.916,2.754827179,,,
06.918,2.845516852,,,
06.920,2.800172015,,,
06.922,2.815286961,,,
06.924,2.800172015,,,
06.926,2.709482342,,,
06.928,2.512988049,,,
06.930,2.422298375,,,
06.932,2.376953538,,,
06.934,2.422298375,,,
06.936,2.497873103,,,
06.938,2.664137505,,,
06.940,2.724597287,,,
06.942,2.754827179,,,
06.944,2.709482342,,,
06.946,2.54321794,,,
06.948,2.376953538,,,
06.950,2.376953538,,,
06.952,2.286263864,,,
06.954,2.437413321,,,
06.956,2.497873103,,,
06.958,2.709482342,,,
06.960,2.618792668,,,
06.962,2.573447831,,,
06.964,2.633907614,,,
06.966,2.573447831,,,
06.968,2.407183429,,,
06.970,2.331608701,,,
06.972,2.392068484,,,
06.974,2.437413321,,,
06.976,2.633907614,,,
06.978,2.588562777,,,
06.980,2.528102994,,,
06.982,2.603677722,,,
06.984,2.497873103,,,
06.986,2.482758158,,,
06.988,2.437413321,,,
06.990,2.271148919,,,
06.992,2.361838593,,,
06.994,2.422298375,,,
06.996,2.54321794,,,
06.998,2.618792668,,,
07.000,2.679252451,,,
07.002,2.724597287,,,
07.004,2.724597287,,,
07.006,2.528102994,,,
07.008,2.30137881,,,
07.010,2.361838593,,,
07.012,2.376953538,,,
07.014,2.346723647,,,
07.016,2.588562777,,,
07.018,2.800172015,,,
07.020,2.815286961,,,
07.022,2.800172015,,,
07.024,2.769942124,,,
07.026,2.512988049,,,
07.028,2.407183429,,,
07.030,2.346723647,,,
07.032,2.437413321,,,
07.034,2.407183429,,,
07.036,2.422298375,,,
07.038,2.78505707,,,
07.040,2.860631798,,,
07.042,2.679252451,,,
07.044,2.649022559,,,
07.046,2.467643212,,,
07.048,2.422298375,,,
07.050,2.452528266,,,
07.052,2.437413321,,,
07.054,2.528102994,,,
07.056,2.558332886,,,
07.058,2.649022559,,,
07.060,2.679252451,,,
07.062,2.664137505,,,
07.064,2.603677722,,,
07.066,2.558332886,,,
07.068,2.452528266,,,
07.070,2.361838593,,,
07.072,2.346723647,,,
07.074,2.437413321,,,
07.076,2.618792668,,,
07.078,2.664137505,,,
07.080,2.709482342,,,
07.082,2.588562777,,,
07.084,2.649022559,,,
07.086,2.558332886,,,
07.088,2.422298375,,,
07.090,2.376953538,,,
07.092,2.437413321,,,
07.094,2.437413321,,,
07.096,2.512988049,,,
07.098,2.709482342,,,
07.100,2.754827179,,,
07.102,2.649022559,,,
07.104,2.376953538,,,
07.106,2.407183429,,,
07.108,2.437413321,,,
07.110,2.452528266,,,
07.112,2.286263864,,,
07.114,2.271148919,,,
07.116,2.679252451,,,
07.118,2.603677722,,,
07.120,2.633907614,,,
07.122,2.664137505,,,
07.124,2.633907614,,,
07.126,2.528102994,,,
07.128,2.271148919,,,
07.130,2.286263864,,,
07.132,2.407183429,,,
07.134,2.422298375,,,
07.136,2.512988049,,,
07.138,2.649022559,,,
07.140,2.512988049,,,
07.142,2.618792668,,,
07.144,2.664137505,,,
07.146,2.437413321,,,
07.148,2.407183429,,,
07.150,2.407183429,,,
07.152,2.392068484,,,
07.154,2.422298375,,,
07.156,2.633907614,,,
07.158,2.679252451,,,
07.160,2.664137505,,,
07.162,2.649022559,,,
07.164,2.573447831,,,
07.166,2.437413321,,,
07.168,2.407183429,,,
07.170,2.407183429,,,
07.172,2.331608701,,,
07.174,2.407183429,,,
07.176,2.497873103,,,
07.178,2.739712233,,,
07.180,2.588562777,,,
07.182,2.467643212,,,
07.184,2.528102994,,,
07.186,2.30137881,,,
07.188,2.286263864,,,
07.190,2.346723647,,,
07.192,2.316493756,,,
07.194,2.346723647,,,
07.196,2.618792668,,,
07.198,2.649022559,,,
07.200,2.588562777,,,
07.202,2.664137505,,,
07.204,2.649022559,,,
07.206,2.271148919,,,
07.208,2.286263864,,,
07.210,2.271148919,,,
07.212,2.346723647,,,
07.214,2.271148919,,,
07.216,2.558332886,,,
07.218,2.694367396,,,
07.220,2.679252451,,,
07.222,2.709482342,,,
07.224,2.588562777,,,
07.226,2.286263864,,,
07.228,2.286263864,,,
07.230,2.286263864,,,
07.232,2.316493756,,,
07.234,2.361838593,,,
07.236,2.649022559,,,
07.238,2.633907614,,,
07.240,2.54321794,,,
07.242,2.603677722,,,
07.244,2.528102994,,,
07.246,2.346723647,,,
07.248,2.331608701,,,
07.250,2.331608701,,,
07.252,2.225804082,,,
07.254,2.452528266,,,
07.256,2.618792668,,,
07.258,2.573447831,,,
07.260,2.512988049,,,
07.262,2.618792668,,,
07.264,2.573447831,,,
07.266,2.407183429,,,
07.268,2.225804082,,,
07.270,2.316493756,,,
07.272,2.286263864,,,
07.274,2.256033973,,,
07.276,2.618792668,,,
07.278,2.649022559,,,
07.280,2.618792668,,,
07.282,2.588562777,,,
07.284,2.422298375,,,
07.286,2.30137881,,,
07.288,2.346723647,,,
07.290,2.392068484,,,
07.292,2.497873103,,,
07.294,2.437413321,,,
07.296,2.664137505,,,
07.298,2.754827179,,,
07.300,2.633907614,,,
07.302,2.679252451,,,
07.304,2.573447831,,,
07.306,2.422298375,,,
07.308,2.331608701,,,
07.310,2.437413321,,,
07.312,2.407183429,,,
07.314,2.664137505,,,
07.316,2.754827179,,,
07.318,2.800172015,,,
07.320,2.78505707,,,
07.322,2.769942124,,,
07.324,2.694367396,,,
07.326,2.54321794,,,
07.328,2.512988049,,,
07.330,2.588562777,,,
07.332,2.346723647,,,
07.334,2.512988049,,,
07.336,2.845516852,,,
07.338,2.905976635,,,
07.340,2.769942124,,,
07.342,2.845516852,,,
07.344,2.694367396,,,
07.346,2.361838593,,,
07.348,2.331608701,,,
07.350,2.407183429,,,
07.352,2.331608701,,,
07.354,2.573447831,,,
07.356,2.709482342,,,
07.358,2.78505707,,,
07.360,2.618792668,,,
07.362,2.603677722,,,
07.364,2.422298375,,,
07.366,2.331608701,,,
07.368,2.286263864,,,
07.370,2.30137881,,,
07.372,2.316493756,,,
07.374,2.588562777,,,
07.376,2.588562777,,,
07.378,2.633907614,,,
07.380,2.694367396,,,
07.382,2.497873103,,,
07.384,2.30137881,,,
07.386,2.407183429,,,
07.388,2.30137881,,,
07.390,2.331608701,,,
07.392,2.361838593,,,
07.394,2.588562777,,,
07.396,2.588562777,,,
07.398,2.512988049,,,
07.400,2.558332886,,,
07.402,2.482758158,,,
07.404,2.361838593,,,
07.406,2.286263864,,,
07.408,2.180459245,,,
07.410,2.135114408,,,
07.412,2.256033973,,,
07.414,2.54321794,,,
07.416,2.649022559,,,
07.418,2.618792668,,,
07.420,2.54321794,,,
07.422,2.603677722,,,
07.424,2.240919028,,,
07.426,2.014194843,,,
07.428,2.195574191,,,
07.430,2.376953538,,,
07.432,2.497873103,,,
07.434,2.588562777,,,
07.436,2.573447831,,,
07.438,2.649022559,,,
07.440,2.528102994,,,
07.442,2.54321794,,,
07.444,2.225804082,,,
07.446,2.195574191,,,
07.448,2.346723647,,,
07.450,2.316493756,,,
07.452,2.286263864,,,
07.454,2.452528266,,,
07.456,2.512988049,,,
07.458,2.573447831,,,
07.460,2.512988049,,,
07.462,2.437413321,,,
07.464,2.195574191,,,
07.466,2.119999463,,,
07.468,2.30137881,,,
07.470,2.331608701,,,
07.472,2.573447831,,,
07.474,2.860631798,,,
07.476,3.102470928,,,
07.478,3.40476984,,,
07.480,3.510574459,,,
07.482,3.64660897,,,
07.484,3.676838861,,,
07.486,3.903563045,,,
07.488,4.26632174,,,
07.490,4.447701088,,,
07.492,4.447701088,,,
07.494,4.37212636,,,
07.496,4.26632174,,,
07.498,4.220976903,,,
07.500,3.918677991,,,
07.502,3.601264133,,,
07.504,3.132700819,,,
07.506,2.603677722,,,
07.508,2.316493756,,,
07.510,2.104884517,,,
07.512,2.074654626,,,
07.514,2.331608701,,,
07.516,2.422298375,,,
07.518,2.497873103,,,
07.520,2.467643212,,,
07.522,2.497873103,,,
07.524,2.422298375,,,
07.526,2.316493756,,,
07.528,2.331608701,,,
07.530,2.467643212,,,
07.532,2.437413321,,,
07.534,2.618792668,,,
07.536,2.709482342,,,
07.538,2.618792668,,,
07.540,2.573447831,,,
07.542,2.54321794,,,
07.544,2.376953538,,,
07.546,2.30137881,,,
07.548,2.316493756,,,
07.550,2.361838593,,,
07.552,2.54321794,,,
07.554,2.649022559,,,
07.556,2.633907614,,,
07.558,2.709482342,,,
07.560,2.664137505,,,
07.562,2.603677722,,,
07.564,2.407183429,,,
07.566,2.331608701,,,
07.568,2.331608701,,,
07.570,2.437413321,,,
07.572,2.528102994,,,
07.574,2.739712233,,,
07.576,2.754827179,,,
07.578,2.603677722,,,
07.580,2.679252451,,,
07.582,2.588562777,,,
07.584,2.482758158,,,
07.586,2.437413321,,,
07.588,2.361838593,,,
07.590,2.437413321,,,
07.592,2.588562777,,,
07.594,2.679252451,,,
07.596,2.724597287,,,
07.598,2.754827179,,,
07.600,2.769942124,,,
07.602,2.618792668,,,
07.604,2.558332886,,,
07.606,2.497873103,,,
07.608,2.482758158,,,
07.610,2.467643212,,,
07.612,2.679252451,,,
07.614,2.815286961,,,
07.616,2.679252451,,,
07.618,2.800172015,,,
07.620,2.709482342,,,
07.622,2.694367396,,,
07.624,2.603677722,,,
07.626,2.528102994,,,
07.628,2.376953538,,,
07.630,2.497873103,,,
07.632,2.724597287,,,
07.634,2.860631798,,,
07.636,2.981551363,,,
07.638,2.830401907,,,
07.640,2.845516852,,,
07.642,2.754827179,,,
07.644,2.603677722,,,
07.646,2.528102994,,,
07.648,2.633907614,,,
07.650,2.649022559,,,
07.652,2.815286961,,,
07.654,2.981551363,,,
07.656,2.966436417,,,
07.658,3.011781254,,,
07.660,3.0268962,,,
07.662,2.890861689,,,
07.664,2.815286961,,,
07.666,2.512988049,,,
07.668,2.664137505,,,
07.670,2.724597287,,,
07.672,2.936206526,,,
07.674,3.042011145,,,
07.676,3.16293071,,,
07.678,3.178045656,,,
07.680,3.147815765,,,
07.682,3.042011145,,,
07.684,2.905976635,,,
07.686,2.936206526,,,
07.688,2.996666308,,,
07.690,3.057126091,,,
07.692,3.223390493,,,
07.694,3.298965221,,,
07.696,3.374539949,,,
07.698,3.465229623,,,
07.700,3.389654895,,,
07.702,3.117585873,,,
07.704,3.102470928,,,
07.706,3.057126091,,,
07.708,3.178045656,,,
07.710,3.16293071,,,
07.712,3.298965221,,,
07.714,3.419884786,,,
07.716,3.434999731,,,
07.718,3.298965221,,,
07.720,3.465229623,,,
07.722,3.223390493,,,
07.724,3.102470928,,,
07.726,3.117585873,,,
07.728,3.117585873,,,
07.730,3.102470928,,,
07.732,3.26873533,,,
07.734,3.26873533,,,
07.736,3.238505438,,,
07.738,3.193160601,,,
07.740,3.283850275,,,
07.742,3.132700819,,,
07.744,2.890861689,,,
07.746,2.815286961,,,
07.748,2.78505707,,,
07.750,2.78505707,,,
07.752,3.042011145,,,
07.754,3.087355982,,,
07.756,3.117585873,,,
07.758,2.936206526,,,
07.760,2.800172015,,,
07.762,2.724597287,,,
07.764,2.588562777,,,
07.766,2.558332886,,,
07.768,2.588562777,,,
07.770,2.588562777,,,
07.772,2.78505707,,,
07.774,2.875746744,,,
07.776,2.875746744,,,
07.778,2.649022559,,,
07.780,2.649022559,,,
07.782,2.346723647,,,
07.784,2.361838593,,,
07.786,2.286263864,,,
07.788,2.30137881,,,
07.790,2.346723647,,,
07.792,2.588562777,,,
07.794,2.694367396,,,
07.796,2.679252451,,,
07.798,2.754827179,,,
07.800,2.724597287,,,
07.802,2.512988049,,,
07.804,2.286263864,,,
07.806,2.361838593,,,
07.808,2.346723647,,,
07.810,2.437413321,,,
07.812,2.588562777,,,
07.814,2.649022559,,,
07.816,2.694367396,,,
07.818,2.633907614,,,
07.820,2.603677722,,,
07.822,2.361838593,,,
07.824,2.119999463,,,
07.826,2.150229354,,,
07.828,2.30137881,,,
07.830,2.512988049,,,
07.832,2.603677722,,,
07.834,2.679252451,,,
07.836,2.664137505,,,
07.838,2.588562777,,,
07.840,2.558332886,,,
07.842,2.422298375,,,
07.844,2.346723647,,,
07.846,2.316493756,,,
07.848,2.180459245,,,
07.850,2.361838593,,,
07.852,2.618792668,,,
07.854,2.512988049,,,
07.856,2.467643212,,,
07.858,2.558332886,,,
07.860,2.54321794,,,
07.862,2.467643212,,,
07.864,2.392068484,,,
07.866,2.240919028,,,
07.868,2.407183429,,,
07.870,2.497873103,,,
07.872,2.603677722,,,
07.874,2.754827179,,,
07.876,2.664137505,,,
07.878,2.633907614,,,
07.880,2.573447831,,,
07.882,2.376953538,,,
07.884,2.361838593,,,
07.886,2.346723647,,,
07.888,2.361838593,,,
07.890,2.528102994,,,
07.892,2.724597287,,,
07.894,2.754827179,,,
07.896,2.724597287,,,
07.898,2.633907614,,,
07.900,2.452528266,,,
07.902,2.346723647,,,
07.904,2.346723647,,,
07.906,2.316493756,,,
07.908,2.437413321,,,
07.910,2.467643212,,,
07.912,2.573447831,,,
07.914,2.588562777,,,
07.916,2.694367396,,,
07.918,2.633907614,,,
07.920,2.528102994,,,
07.922,2.240919028,,,
07.924,2.30137881,,,
07.926,2.407183429,,,
07.928,2.482758158,,,
07.930,2.422298375,,,
07.932,2.603677722,,,
07.934,2.588562777,,,
07.936,2.588562777,,,
07.938,2.694367396,,,
07.940,2.497873103,,,
07.942,2.392068484,,,
07.944,2.392068484,,,
07.946,2.30137881,,,
07.948,2.407183429,,,
07.950,2.588562777,,,
07.952,2.603677722,,,
07.954,2.679252451,,,
07.956,2.679252451,,,
07.958,2.54321794,,,
07.960,2.392068484,,,
07.962,2.316493756,,,
07.964,2.256033973,,,
07.966,2.361838593,,,
07.968,2.407183429,,,
07.970,2.573447831,,,
07.972,2.754827179,,,
07.974,2.467643212,,,
07.976,2.407183429,,,
07.978,2.482758158,,,
07.980,2.361838593,,,
07.982,2.316493756,,,
07.984,2.286263864,,,
07.986,2.180459245,,,
07.988,2.256033973,,,
07.990,2.528102994,,,
07.992,2.618792668,,,
07.994,2.603677722,,,
07.996,2.573447831,,,
07.998,2.558332886,,,
08.000,2.361838593,,,