Time (s),Signal (V),Peak Time (s),Sample #,Type
00.000,2.448304567,00.546,273,N
00.002,2.409555485,00.794,397,t
00.004,2.347556955,01.480,740,N
00.006,2.184810813,01.716,858,t
00.008,2.099562834,02.390,1195,N
00.010,2.022064672,02.630,1315,t
00.012,2.084063202,03.196,1598,N
00.014,2.153811548,03.444,1722,t
00.016,2.293308241,03.928,1964,N
00.018,2.463804199,04.178,2089,t
00.020,2.456054383,04.610,2305,N
00.022,2.417305302,04.852,2426,t
00.024,2.347556955,05.264,2632,N
00.026,2.208060262,05.504,2752,t
00.028,2.04531412,05.902,2951,N
00.030,2.006565039,06.136,3068,t
00.032,2.122812283,06.552,3276,N
00.034,2.177060997,06.794,3397,t
00.036,2.293308241,07.228,3614,N
00.038,2.355306771,07.480,3740,t
00.040,2.456054383,,,
00.042,2.370806404,,,
00.044,2.332057323,,,
00.046,2.231309711,,,
00.048,2.037564304,,,
00.050,2.037564304,,,
00.052,2.060813753,,,
00.054,2.161561364,,,
00.056,2.293308241,,,
00.058,2.386306036,,,
00.060,2.448304567,,,
00.062,2.370806404,,,
00.064,2.270058792,,,
00.066,2.153811548,,,
00.068,2.037564304,,,
00.070,2.04531412,,,
00.072,2.060813753,,,
00.074,2.161561364,,,
00.076,2.339807139,,,
00.078,2.448304567,,,
00.080,2.339807139,,,
00.082,2.332057323,,,
00.084,2.270058792,,,
00.086,2.146061732,,,
00.088,2.006565039,,,
00.090,2.014314855,,,
00.092,2.084063202,,,
00.094,2.115062467,,,
00.096,2.293308241,,,
00.098,2.347556955,,,
00.100,2.401805669,,,
00.102,2.37855622,,,
00.104,2.31655769,,,
00.106,2.084063202,,,
00.108,1.929066876,,,
00.110,2.014314855,,,
00.112,2.076313385,,,
00.114,2.161561364,,,
00.116,2.270058792,,,
00.118,2.339807139,,,
00.120,2.31655769,,,
00.122,2.308807874,,,
00.124,2.270058792,,,
00.126,2.068563569,,,
00.128,1.960066141,,,
00.130,1.98331559,,,
00.132,2.014314855,,,
00.134,2.122812283,,,
00.136,2.277808609,,,
00.138,2.386306036,,,
00.140,2.347556955,,,
00.142,2.324307506,,,
00.144,2.208060262,,,
00.146,2.029814488,,,
00.148,1.952316325,,,
00.150,1.975565774,,,
00.152,2.037564304,,,
00.154,2.169311181,,,
00.156,2.301058057,,,
00.158,2.332057323,,,
00.160,2.332057323,,,
00.162,2.293308241,,,
00.164,2.215810078,,,
00.166,2.04531412,,,
00.168,1.929066876,,,
00.170,1.929066876,,,
00.172,2.022064672,,,
00.174,2.161561364,,,
00.176,2.293308241,,,
00.178,2.355306771,,,
00.180,2.347556955,,,
00.182,2.25455916,,,
00.184,2.130562099,,,
00.186,2.037564304,,,
00.188,1.944566509,,,
00.190,1.960066141,,,
00.192,2.022064672,,,
00.194,2.208060262,,,
00.196,2.301058057,,,
00.198,2.347556955,,,
00.200,2.332057323,,,
00.202,2.262308976,,,
00.204,2.177060997,,,
00.206,2.014314855,,,
00.208,1.944566509,,,
00.210,1.991065406,,,
00.212,2.060813753,,,
00.214,2.122812283,,,
00.216,2.339807139,,,
00.218,2.347556955,,,
00.220,2.277808609,,,
00.222,2.231309711,,,
00.224,2.115062467,,,
00.226,1.991065406,,,
00.228,1.92131706,,,
00.230,1.913567244,,,
00.232,2.006565039,,,
00.234,2.161561364,,,
00.236,2.293308241,,,
00.238,2.355306771,,,
00.240,2.332057323,,,
00.242,2.301058057,,,
00.244,2.099562834,,,
00.246,1.991065406,,,
00.248,1.944566509,,,
00.250,1.92131706,,,
00.252,2.053063937,,,
00.254,2.146061732,,,
00.256,2.324307506,,,
00.258,2.363056588,,,
00.260,2.31655769,,,
00.262,2.239059527,,,
00.264,2.091813018,,,
00.266,1.991065406,,,
00.268,1.952316325,,,
00.270,1.952316325,,,
00.272,2.037564304,,,
00.274,2.099562834,,,
00.276,2.270058792,,,
00.278,2.339807139,,,
00.280,2.31655769,,,
00.282,2.231309711,,,
00.284,2.138311916,,,
00.286,1.991065406,,,
00.288,1.929066876,,,
00.290,1.936816693,,,
00.292,1.998815223,,,
00.294,2.153811548,,,
00.296,2.301058057,,,
00.298,2.355306771,,,
00.300,2.25455916,,,
00.302,2.169311181,,,
00.304,2.138311916,,,
00.306,1.975565774,,,
00.308,1.882567979,,,
00.310,1.952316325,,,
00.312,2.084063202,,,
00.314,2.239059527,,,
00.316,2.223559895,,,
00.318,2.301058057,,,
00.320,2.285558425,,,
00.322,2.246809344,,,
00.324,2.115062467,,,
00.326,1.929066876,,,
00.328,1.867068346,,,
00.330,2.053063937,,,
00.332,2.04531412,,,
00.334,2.177060997,,,
00.336,2.308807874,,,
00.338,2.285558425,,,
00.340,2.277808609,,,
00.342,2.231309711,,,
00.344,2.068563569,,,
00.346,1.929066876,,,
00.348,1.929066876,,,
00.350,1.998815223,,,
00.352,2.022064672,,,
00.354,2.246809344,,,
00.356,2.293308241,,,
00.358,2.31655769,,,
00.360,2.239059527,,,
00.362,2.208060262,,,
00.364,2.053063937,,,
00.366,1.975565774,,,
00.368,1.98331559,,,
00.370,1.998815223,,,
00.372,2.060813753,,,
00.374,2.215810078,,,
00.376,2.363056588,,,
00.378,2.409555485,,,
00.380,2.31655769,,,
00.382,2.200310446,,,
00.384,2.060813753,,,
00.386,1.998815223,,,
00.388,2.04531412,,,
00.390,2.107312651,,,
00.392,2.177060997,,,
00.394,2.301058057,,,
00.396,2.386306036,,,
00.398,2.370806404,,,
00.400,2.417305302,,,
00.402,2.277808609,,,
00.404,2.091813018,,,
00.406,2.076313385,,,
00.408,2.022064672,,,
00.410,2.084063202,,,
00.412,2.153811548,,,
00.414,2.285558425,,,
00.416,2.332057323,,,
00.418,2.417305302,,,
00.420,2.432804934,,,
00.422,2.31655769,,,
00.424,2.115062467,,,
00.426,1.998815223,,,
00.428,1.998815223,,,
00.430,2.037564304,,,
00.432,2.115062467,,,
00.434,2.177060997,,,
00.436,2.239059527,,,
00.438,2.339807139,,,
00.440,2.262308976,,,
00.442,2.146061732,,,
00.444,1.944566509,,,
00.446,1.890317795,,,
00.448,1.92131706,,,
00.450,2.091813018,,,
00.452,2.076313385,,,
00.454,2.200310446,,,
00.456,2.301058057,,,
00.458,2.270058792,,,
00.460,2.223559895,,,
00.462,2.091813018,,,
00.464,1.936816693,,,
00.466,1.836069081,,,
00.468,1.929066876,,,
00.470,1.98331559,,,
00.472,2.014314855,,,
00.474,2.208060262,,,
00.476,2.285558425,,,
00.478,2.285558425,,,
00.480,2.169311181,,,
00.482,2.037564304,,,
00.484,1.882567979,,,
00.486,1.92131706,,,
00.488,1.913567244,,,
00.490,1.967815958,,,
00.492,2.068563569,,,
00.494,2.177060997,,,
00.496,2.262308976,,,
00.498,2.246809344,,,
00.500,2.19256063,,,
00.502,2.115062467,,,
00.504,1.944566509,,,
00.506,1.843818897,,,
00.508,1.867068346,,,
00.510,1.952316325,,,
00.512,2.068563569,,,
00.514,2.146061732,,,
00.516,2.208060262,,,
00.518,2.301058057,,,
00.520,2.246809344,,,
00.522,2.053063937,,,
00.524,1.936816693,,,
00.526,1.882567979,,,
00.528,1.967815958,,,
00.530,2.107312651,,,
00.532,2.308807874,,,
00.534,2.510303097,,,
00.536,2.673049239,,,
00.538,2.750547401,,,
00.540,2.742797585,,,
00.542,2.71179832,,,
00.544,2.766047034,,,
00.546,2.735047769,,,
00.548,2.727297952,,,
00.550,2.704048504,,,
00.552,2.719548136,,,
00.554,2.688548871,,,
00.556,2.595551076,,,
00.558,2.417305302,,,
00.560,2.270058792,,,
00.562,1.98331559,,,
00.564,1.735321469,,,
00.566,1.580325144,,,
00.568,1.549325879,,,
00.570,1.688822572,,,
00.572,1.805069816,,,
00.574,1.92131706,,,
00.576,1.952316325,,,
00.578,1.874818162,,,
00.580,1.843818897,,,
00.582,1.843818897,,,
00.584,1.712072021,,,
00.586,1.704322204,,,
00.588,1.758570918,,,
00.590,1.79732,,,
00.592,2.04531412,,,
00.594,2.223559895,,,
00.596,2.262308976,,,
00.598,2.169311181,,,
00.600,2.099562834,,,
00.602,1.952316325,,,
00.604,1.913567244,,,
00.606,1.851568714,,,
00.608,1.936816693,,,
00.610,1.960066141,,,
00.612,2.146061732,,,
00.614,2.215810078,,,
00.616,2.231309711,,,
00.618,2.25455916,,,
00.620,2.153811548,,,
00.622,2.014314855,,,
00.624,1.874818162,,,
00.626,1.836069081,,,
00.628,1.92131706,,,
00.630,1.944566509,,,
00.632,2.146061732,,,
00.634,2.25455916,,,
00.636,2.231309711,,,
00.638,2.262308976,,,
00.640,2.19256063,,,
00.642,2.029814488,,,
00.644,1.890317795,,,
00.646,1.890317795,,,
00.648,1.929066876,,,
00.650,1.998815223,,,
00.652,2.184810813,,,
00.654,2.239059527,,,
00.656,2.246809344,,,
00.658,2.215810078,,,
00.660,2.161561364,,,
00.662,1.944566509,,,
00.664,1.843818897,,,
00.666,1.890317795,,,
00.668,1.929066876,,,
00.670,2.022064672,,,
00.672,2.215810078,,,
00.674,2.262308976,,,
00.676,2.285558425,,,
00.678,2.270058792,,,
00.680,2.184810813,,,
00.682,1.998815223,,,
00.684,1.85931853,,,
00.686,1.85931853,,,
00.688,1.975565774,,,
00.690,2.04531412,,,
00.692,2.208060262,,,
00.694,2.308807874,,,
00.696,2.301058057,,,
00.698,2.246809344,,,
00.700,2.107312651,,,
00.702,2.006565039,,,
00.704,1.952316325,,,
00.706,1.905817427,,,
00.708,1.98331559,,,
00.710,2.076313385,,,
00.712,2.270058792,,,
00.714,2.386306036,,,
00.716,2.370806404,,,
00.718,2.270058792,,,
00.720,2.215810078,,,
00.722,2.068563569,,,
00.724,1.905817427,,,
00.726,2.037564304,,,
00.728,2.068563569,,,
00.730,2.153811548,,,
00.732,2.386306036,,,
00.734,2.425055118,,,
00.736,2.425055118,,,
00.738,2.370806404,,,
00.740,2.293308241,,,
00.742,2.130562099,,,
00.744,2.022064672,,,
00.746,1.998815223,,,
00.748,2.138311916,,,
00.750,2.31655769,,,
00.752,2.448304567,,,
00.754,2.549052178,,,
00.756,2.518052913,,,
00.758,2.432804934,,,
00.760,2.301058057,,,
00.762,2.239059527,,,
00.764,2.215810078,,,
00.766,2.262308976,,,
00.768,2.246809344,,,
00.770,2.370806404,,,
00.772,2.580051443,,,
00.774,2.626550341,,,
00.776,2.518052913,,,
00.778,2.479303832,,,
00.780,2.479303832,,,
00.782,2.301058057,,,
00.784,2.208060262,,,
00.786,2.215810078,,,
00.788,2.370806404,,,
00.790,2.463804199,,,
00.792,2.572301627,,,
00.794,2.626550341,,,
00.796,2.611050708,,,
00.798,2.572301627,,,
00.800,2.456054383,,,
00.802,2.293308241,,,
00.804,2.270058792,,,
00.806,2.308807874,,,
00.808,2.332057323,,,
00.810,2.425055118,,,
00.812,2.572301627,,,
00.814,2.603300892,,,
00.816,2.549052178,,,
00.818,2.525802729,,,
00.820,2.355306771,,,
00.822,2.169311181,,,
00.824,2.115062467,,,
00.826,2.153811548,,,
00.828,2.200310446,,,
00.830,2.293308241,,,
00.832,2.386306036,,,
00.834,2.44055475,,,
00.836,2.394055853,,,
00.838,2.293308241,,,
00.840,2.138311916,,,
00.842,2.022064672,,,
00.844,1.952316325,,,
00.846,1.967815958,,,
00.848,2.029814488,,,
00.850,2.130562099,,,
00.852,2.246809344,,,
00.854,2.25455916,,,
00.856,2.215810078,,,
00.858,2.153811548,,,
00.860,2.022064672,,,
00.862,1.851568714,,,
00.864,1.789570183,,,
00.866,1.812819632,,,
00.868,1.936816693,,,
00.870,2.076313385,,,
00.872,2.177060997,,,
00.874,2.208060262,,,
00.876,2.200310446,,,
00.878,2.068563569,,,
00.880,1.874818162,,,
00.882,1.820569448,,,
00.884,1.898067611,,,
00.886,1.851568714,,,
00.888,1.913567244,,,
00.890,2.060813753,,,
00.892,2.130562099,,,
00.894,2.122812283,,,
00.896,2.053063937,,,
00.898,2.068563569,,,
00.900,1.960066141,,,
00.902,1.758570918,,,
00.904,1.735321469,,,
00.906,1.812819632,,,
00.908,1.874818162,,,
00.910,2.053063937,,,
00.912,2.161561364,,,
00.914,2.177060997,,,
00.916,2.153811548,,,
00.918,2.006565039,,,
00.920,1.867068346,,,
00.922,1.743071286,,,
00.924,1.774070551,,,
00.926,1.79732,,,
00.928,1.905817427,,,
00.930,2.060813753,,,
00.932,2.122812283,,,
00.934,2.076313385,,,
00.936,2.107312651,,,
00.938,2.037564304,,,
00.940,1.812819632,,,
00.942,1.750821102,,,
00.944,1.743071286,,,
00.946,1.766320735,,,
00.948,1.890317795,,,
00.950,2.068563569,,,
00.952,2.122812283,,,
00.954,2.122812283,,,
00.956,2.04531412,,,
00.958,1.975565774,,,
00.960,1.882567979,,,
00.962,1.774070551,,,
00.964,1.665573123,,,
00.966,1.727571653,,,
00.968,1.929066876,,,
00.970,2.053063937,,,
00.972,2.138311916,,,
00.974,2.138311916,,,
00.976,2.014314855,,,
00.978,1.960066141,,,
00.980,1.781820367,,,
00.982,1.665573123,,,
00.984,1.681072755,,,
00.986,1.750821102,,,
00.988,1.828319265,,,
00.990,2.037564304,,,
00.992,2.099562834,,,
00.994,2.084063202,,,
00.996,1.998815223,,,
00.998,1.905817427,,,
01.000,1.719821837,,,
01.002,1.727571653,,,
01.004,1.65007349,,,
01.006,1.719821837,,,
01.008,1.805069816,,,
01.010,1.975565774,,,
01.012,2.107312651,,,
01.014,2.084063202,,,
01.016,1.98331559,,,
01.018,1.867068346,,,
01.020,1.712072021,,,
01.022,1.642323674,,,
01.024,1.657823307,,,
01.026,1.766320735,,,
01.028,1.85931853,,,
01.030,2.022064672,,,
01.032,2.068563569,,,
01.034,2.029814488,,,
01.036,1.998815223,,,
01.038,1.851568714,,,
01.040,1.719821837,,,
01.042,1.634573858,,,
01.044,1.65007349,,,
01.046,1.712072021,,,
01.048,1.828319265,,,
01.050,1.98331559,,,
01.052,2.060813753,,,
01.054,1.952316325,,,
01.056,1.828319265,,,
01.058,1.913567244,,,
01.060,1.805069816,,,
01.062,1.665573123,,,
01.064,1.665573123,,,
01.066,1.750821102,,,
01.068,1.843818897,,,
01.070,1.998815223,,,
01.072,2.060813753,,,
01.074,1.967815958,,,
01.076,1.92131706,,,
01.078,1.781820367,,,
01.080,1.696572388,,,
01.082,1.657823307,,,
01.084,1.634573858,,,
01.086,1.696572388,,,
01.088,1.812819632,,,
01.090,1.929066876,,,
01.092,1.991065406,,,
01.094,1.998815223,,,
01.096,1.882567979,,,
01.098,1.774070551,,,
01.100,1.681072755,,,
01.102,1.642323674,,,
01.104,1.657823307,,,
01.106,1.696572388,,,
01.108,1.836069081,,,
01.110,2.014314855,,,
01.112,2.006565039,,,
01.114,1.913567244,,,
01.116,1.874818162,,,
01.118,1.719821837,,,
01.120,1.611324409,,,
01.122,1.572575328,,,
01.124,1.681072755,,,
01.126,1.704322204,,,
01.128,1.812819632,,,
01.130,1.967815958,,,
01.132,2.037564304,,,
01.134,1.967815958,,,
01.136,1.890317795,,,
01.138,1.766320735,,,
01.140,1.626824042,,,
01.142,1.634573858,,,
01.144,1.642323674,,,
01.146,1.642323674,,,
01.148,1.898067611,,,
01.150,1.944566509,,,
01.152,1.929066876,,,
01.154,1.944566509,,,
01.156,1.890317795,,,
01.158,1.727571653,,,
01.160,1.595824776,,,
01.162,1.696572388,,,
01.164,1.681072755,,,
01.166,1.688822572,,,
01.168,1.836069081,,,
01.170,1.960066141,,,
01.172,2.014314855,,,
01.174,1.952316325,,,
01.176,1.913567244,,,
01.178,1.735321469,,,
01.180,1.549325879,,,
01.182,1.557075695,,,
01.184,1.611324409,,,
01.186,1.665573123,,,
01.188,1.882567979,,,
01.190,1.936816693,,,
01.192,1.952316325,,,
01.194,1.98331559,,,
01.196,1.828319265,,,
01.198,1.681072755,,,
01.200,1.564825511,,,
01.202,1.626824042,,,
01.204,1.65007349,,,
01.206,1.712072021,,,
01.208,1.836069081,,,
01.210,1.967815958,,,
01.212,1.960066141,,,
01.214,1.936816693,,,
01.216,1.851568714,,,
01.218,1.704322204,,,
01.220,1.595824776,,,
01.222,1.557075695,,,
01.224,1.688822572,,,
01.226,1.704322204,,,
01.228,1.843818897,,,
01.230,1.998815223,,,
01.232,1.967815958,,,
01.234,1.867068346,,,
01.236,1.828319265,,,
01.238,1.719821837,,,
01.240,1.58807496,,,
01.242,1.619074225,,,
01.244,1.626824042,,,
01.246,1.712072021,,,
01.248,1.867068346,,,
01.250,2.006565039,,,
01.252,2.006565039,,,
01.254,1.898067611,,,
01.256,1.789570183,,,
01.258,1.665573123,,,
01.260,1.634573858,,,
01.262,1.611324409,,,
01.264,1.642323674,,,
01.266,1.696572388,,,
01.268,1.890317795,,,
01.270,1.991065406,,,
01.272,1.998815223,,,
01.274,1.905817427,,,
01.276,1.781820367,,,
01.278,1.642323674,,,
01.280,1.580325144,,,
01.282,1.572575328,,,
01.284,1.626824042,,,
01.286,1.750821102,,,
01.288,1.929066876,,,
01.290,2.022064672,,,
01.292,1.929066876,,,
01.294,1.890317795,,,
01.296,1.820569448,,,
01.298,1.634573858,,,
01.300,1.634573858,,,
01.302,1.626824042,,,
01.304,1.704322204,,,
01.306,1.85931853,,,
01.308,1.944566509,,,
01.310,1.967815958,,,
01.312,1.98331559,,,
01.314,1.975565774,,,
01.316,1.913567244,,,
01.318,1.727571653,,,
01.320,1.65007349,,,
01.322,1.626824042,,,
01.324,1.750821102,,,
01.326,1.952316325,,,
01.328,2.060813753,,,
01.330,2.115062467,,,
01.332,2.053063937,,,
01.334,1.936816693,,,
01.336,1.843818897,,,
01.338,1.719821837,,,
01.340,1.619074225,,,
01.342,1.673322939,,,
01.344,1.805069816,,,
01.346,1.898067611,,,
01.348,2.04531412,,,
01.350,2.130562099,,,
01.352,1.998815223,,,
01.354,1.991065406,,,
01.356,1.890317795,,,
01.358,1.719821837,,,
01.360,1.611324409,,,
01.362,1.657823307,,,
01.364,1.681072755,,,
01.366,1.805069816,,,
01.368,2.014314855,,,
01.370,2.022064672,,,
01.372,1.991065406,,,
01.374,1.874818162,,,
01.376,1.750821102,,,
01.378,1.619074225,,,
01.380,1.557075695,,,
01.382,1.549325879,,,
01.384,1.619074225,,,
01.386,1.766320735,,,
01.388,1.944566509,,,
01.390,1.967815958,,,
01.392,1.929066876,,,
01.394,1.85931853,,,
01.396,1.735321469,,,
01.398,1.611324409,,,
01.400,1.541576063,,,
01.402,1.533826246,,,
01.404,1.657823307,,,
01.406,1.781820367,,,
01.408,1.936816693,,,
01.410,1.98331559,,,
01.412,1.929066876,,,
01.414,1.890317795,,,
01.416,1.688822572,,,
01.418,1.557075695,,,
01.420,1.52607643,,,
01.422,1.58807496,,,
01.424,1.665573123,,,
01.426,1.843818897,,,
01.428,1.936816693,,,
01.430,1.944566509,,,
01.432,1.874818162,,,
01.434,1.766320735,,,
01.436,1.712072021,,,
01.438,1.626824042,,,
01.440,1.541576063,,,
01.442,1.611324409,,,
01.444,1.673322939,,,
01.446,1.805069816,,,
01.448,1.952316325,,,
01.450,1.936816693,,,
01.452,1.874818162,,,
01.454,1.843818897,,,
01.456,1.681072755,,,
01.458,1.58807496,,,
01.460,1.58807496,,,
01.462,1.766320735,,,
01.464,1.898067611,,,
01.466,2.084063202,,,
01.468,2.215810078,,,
01.470,2.409555485,,,
01.472,2.401805669,,,
01.474,2.518052913,,,
01.476,2.518052913,,,
01.478,2.432804934,,,
01.480,2.425055118,,,
01.482,2.363056588,,,
01.484,2.332057323,,,
01.486,2.363056588,,,
01.488,2.37855622,,,
01.490,2.239059527,,,
01.492,2.04531412,,,
01.494,1.843818897,,,
01.496,1.595824776,,,
01.498,1.386579737,,,
01.500,1.301331758,,,
01.502,1.270332493,,,
01.504,1.309081574,,,
01.506,1.549325879,,,
01.508,1.65007349,,,
01.510,1.681072755,,,
01.512,1.626824042,,,
01.514,1.564825511,,,
01.516,1.409829186,,,
01.518,1.386579737,,,
01.520,1.417579002,,,
01.522,1.510576797,,,
01.524,1.65007349,,,
01.526,1.836069081,,,
01.528,1.944566509,,,
01.530,1.952316325,,,
01.532,1.874818162,,,
01.534,1.820569448,,,
01.536,1.665573123,,,
01.538,1.580325144,,,
01.540,1.549325879,,,
01.542,1.665573123,,,
01.544,1.712072021,,,
01.546,1.882567979,,,
01.548,1.998815223,,,
01.550,1.967815958,,,
01.552,1.828319265,,,
01.554,1.727571653,,,
01.556,1.673322939,,,
01.558,1.595824776,,,
01.560,1.634573858,,,
01.562,1.696572388,,,
01.564,1.750821102,,,
01.566,1.890317795,,,
01.568,2.060813753,,,
01.570,1.98331559,,,
01.572,1.92131706,,,
01.574,1.79732,,,
01.576,1.673322939,,,
01.578,1.603574593,,,
01.580,1.665573123,,,
01.582,1.696572388,,,
01.584,1.727571653,,,
01.586,1.882567979,,,
01.588,1.98331559,,,
01.590,2.037564304,,,
01.592,1.92131706,,,
01.594,1.836069081,,,
01.596,1.665573123,,,
01.598,1.572575328,,,
01.600,1.611324409,,,
01.602,1.735321469,,,
01.604,1.789570183,,,
01.606,1.98331559,,,
01.608,2.029814488,,,
01.610,1.975565774,,,
01.612,1.890317795,,,
01.614,1.789570183,,,
01.616,1.696572388,,,
01.618,1.634573858,,,
01.620,1.681072755,,,
01.622,1.789570183,,,
01.624,1.812819632,,,
01.626,1.960066141,,,
01.628,2.04531412,,,
01.630,2.006565039,,,
01.632,1.991065406,,,
01.634,1.867068346,,,
01.636,1.735321469,,,
01.638,1.665573123,,,
01.640,1.681072755,,,
01.642,1.781820367,,,
01.644,1.905817427,,,
01.646,2.099562834,,,
01.648,2.107312651,,,
01.650,2.022064672,,,
01.652,1.967815958,,,
01.654,1.913567244,,,
01.656,1.836069081,,,
01.658,1.743071286,,,
01.660,1.750821102,,,
01.662,1.913567244,,,
01.664,1.944566509,,,
01.666,2.122812283,,,
01.668,2.184810813,,,
01.670,2.153811548,,,
01.672,2.084063202,,,
01.674,1.960066141,,,
01.676,1.836069081,,,
01.678,1.79732,,,
01.680,1.867068346,,,
01.682,1.967815958,,,
01.684,2.177060997,,,
01.686,2.270058792,,,
01.688,2.270058792,,,
01.690,2.239059527,,,
01.692,2.25455916,,,
01.694,2.107312651,,,
01.696,1.952316325,,,
01.698,1.929066876,,,
01.700,1.975565774,,,
01.702,2.130562099,,,
01.704,2.246809344,,,
01.706,2.425055118,,,
01.708,2.394055853,,,
01.710,2.448304567,,,
01.712,2.363056588,,,
01.714,2.231309711,,,
01.716,2.084063202,,,
01.718,1.998815223,,,
01.720,2.029814488,,,
01.722,2.138311916,,,
01.724,2.324307506,,,
01.726,2.44055475,,,
01.728,2.518052913,,,
01.730,2.432804934,,,
01.732,2.31655769,,,
01.734,2.169311181,,,
01.736,2.060813753,,,
01.738,2.037564304,,,
01.740,2.115062467,,,
01.742,2.091813018,,,
01.744,2.332057323,,,
01.746,2.425055118,,,
01.748,2.448304567,,,
01.750,2.37855622,,,
01.752,2.285558425,,,
01.754,2.029814488,,,
01.756,1.998815223,,,
01.758,1.98331559,,,
01.760,1.975565774,,,
01.762,2.014314855,,,
01.764,2.177060997,,,
01.766,2.246809344,,,
01.768,2.200310446,,,
01.770,2.146061732,,,
01.772,2.099562834,,,
01.774,1.944566509,,,
01.776,1.758570918,,,
01.778,1.712072021,,,
01.780,1.867068346,,,
01.782,1.913567244,,,
01.784,1.991065406,,,
01.786,2.091813018,,,
01.788,2.068563569,,,
01.790,2.006565039,,,
01.792,1.960066141,,,
01.794,1.758570918,,,
01.796,1.665573123,,,
01.798,1.65007349,,,
01.800,1.719821837,,,
01.802,1.820569448,,,
01.804,1.998815223,,,
01.806,2.029814488,,,
01.808,2.014314855,,,
01.810,1.913567244,,,
01.812,1.905817427,,,
01.814,1.681072755,,,
01.816,1.603574593,,,
01.818,1.665573123,,,
01.820,1.743071286,,,
01.822,1.750821102,,,
01.824,1.874818162,,,
01.826,1.967815958,,,
01.828,2.022064672,,,
01.830,1.905817427,,,
01.832,1.805069816,,,
01.834,1.719821837,,,
01.836,1.727571653,,,
01.838,1.603574593,,,
01.840,1.65007349,,,
01.842,1.758570918,,,
01.844,1.967815958,,,
01.846,2.037564304,,,
01.848,2.006565039,,,
01.850,1.913567244,,,
01.852,1.79732,,,
01.854,1.657823307,,,
01.856,1.603574593,,,
01.858,1.58807496,,,
01.860,1.735321469,,,
01.862,1.805069816,,,
01.864,1.975565774,,,
01.866,2.037564304,,,
01.868,1.944566509,,,
01.870,1.913567244,,,
01.872,1.812819632,,,
01.874,1.665573123,,,
01.876,1.564825511,,,
01.878,1.626824042,,,
01.880,1.743071286,,,
01.882,1.805069816,,,
01.884,1.913567244,,,
01.886,2.029814488,,,
01.888,1.998815223,,,
01.890,1.929066876,,,
01.892,1.828319265,,,
01.894,1.665573123,,,
01.896,1.564825511,,,
01.898,1.611324409,,,
01.900,1.727571653,,,
01.902,1.79732,,,
01.904,1.952316325,,,
01.906,1.998815223,,,
01.908,1.98331559,,,
01.910,1.905817427,,,
01.912,1.712072021,,,
01.914,1.65007349,,,
01.916,1.595824776,,,
01.918,1.688822572,,,
01.920,1.688822572,,,
01.922,1.79732,,,
01.924,1.952316325,,,
01.926,2.029814488,,,
01.928,1.967815958,,,
01.930,1.913567244,,,
01.932,1.79732,,,
01.934,1.603574593,,,
01.936,1.58807496,,,
01.938,1.642323674,,,
01.940,1.681072755,,,
01.942,1.781820367,,,
01.944,1.905817427,,,
01.946,1.998815223,,,
01.948,1.967815958,,,
01.950,1.867068346,,,
01.952,1.642323674,,,
01.954,1.603574593,,,
01.956,1.549325879,,,
01.958,1.611324409,,,
01.960,1.743071286,,,
01.962,1.805069816,,,
01.964,1.843818897,,,
01.966,1.936816693,,,
01.968,1.991065406,,,
01.970,1.882567979,,,
01.972,1.704322204,,,
01.974,1.549325879,,,
01.976,1.52607643,,,
01.978,1.65007349,,,
01.980,1.657823307,,,
01.982,1.805069816,,,
01.984,1.929066876,,,
01.986,1.975565774,,,
01.988,1.890317795,,,
01.990,1.812819632,,,
01.992,1.665573123,,,
01.994,1.557075695,,,
01.996,1.510576797,,,
01.998,1.642323674,,,
02.000,1.665573123,,,
02.002,1.820569448,,,
02.004,1.898067611,,,
02.006,1.936816693,,,
02.008,1.898067611,,,
02.010,1.851568714,,,
02.012,1.681072755,,,
02.014,1.572575328,,,
02.016,1.58807496,,,
02.018,1.533826246,,,
02.020,1.65007349,,,
02.022,1.851568714,,,
02.024,1.944566509,,,
02.026,1.960066141,,,
02.028,1.882567979,,,
02.030,1.781820367,,,
02.032,1.65007349,,,
02.034,1.533826246,,,
02.036,1.495077165,,,
02.038,1.533826246,,,
02.040,1.65007349,,,
02.042,1.843818897,,,
02.044,1.936816693,,,
02.046,1.913567244,,,
02.048,1.851568714,,,
02.050,1.85931853,,,
02.052,1.673322939,,,
02.054,1.479577532,,,
02.056,1.456328084,,,
02.058,1.564825511,,,
02.060,1.681072755,,,
02.062,1.836069081,,,
02.064,1.913567244,,,
02.066,1.905817427,,,
02.068,1.851568714,,,
02.070,1.781820367,,,
02.072,1.611324409,,,
02.074,1.52607643,,,
02.076,1.557075695,,,
02.078,1.549325879,,,
02.080,1.657823307,,,
02.082,1.774070551,,,
02.084,2.014314855,,,
02.086,1.913567244,,,
02.088,1.836069081,,,
02.090,1.812819632,,,
02.092,1.626824042,,,
02.094,1.502826981,,,
02.096,1.518326614,,,
02.098,1.595824776,,,
02.100,1.696572388,,,
02.102,1.851568714,,,
02.104,1.936816693,,,
02.106,1.929066876,,,
02.108,1.820569448,,,
02.110,1.781820367,,,
02.112,1.657823307,,,
02.114,1.4640779,,,
02.116,1.510576797,,,
02.118,1.657823307,,,
02.120,1.681072755,,,
02.122,1.851568714,,,
02.124,1.98331559,,,
02.126,1.936816693,,,
02.128,1.812819632,,,
02.130,1.743071286,,,
02.132,1.58807496,,,
02.134,1.52607643,,,
02.136,1.549325879,,,
02.138,1.619074225,,,
02.140,1.681072755,,,
02.142,1.828319265,,,
02.144,1.975565774,,,
02.146,1.905817427,,,
02.148,1.85931853,,,
02.150,1.719821837,,,
02.152,1.611324409,,,
02.154,1.557075695,,,
02.156,1.564825511,,,
02.158,1.595824776,,,
02.160,1.696572388,,,
02.162,1.828319265,,,
02.164,1.929066876,,,
02.166,1.913567244,,,
02.168,1.882567979,,,
02.170,1.805069816,,,
02.172,1.626824042,,,
02.174,1.510576797,,,
02.176,1.557075695,,,
02.178,1.603574593,,,
02.180,1.851568714,,,
02.182,1.867068346,,,
02.184,2.006565039,,,
02.186,1.92131706,,,
02.188,1.820569448,,,
02.190,1.781820367,,,
02.192,1.619074225,,,
02.194,1.564825511,,,
02.196,1.572575328,,,
02.198,1.642323674,,,
02.200,1.766320735,,,
02.202,1.913567244,,,
02.204,1.975565774,,,
02.206,1.92131706,,,
02.208,1.781820367,,,
02.210,1.696572388,,,
02.212,1.58807496,,,
02.214,1.626824042,,,
02.216,1.619074225,,,
02.218,1.704322204,,,
02.220,1.85931853,,,
02.222,1.967815958,,,
02.224,2.029814488,,,
02.226,2.053063937,,,
02.228,1.905817427,,,
02.230,1.812819632,,,
02.232,1.719821837,,,
02.234,1.665573123,,,
02.236,1.727571653,,,
02.238,1.750821102,,,
02.240,1.882567979,,,
02.242,2.006565039,,,
02.244,2.068563569,,,
02.246,1.929066876,,,
02.248,1.952316325,,,
02.250,1.843818897,,,
02.252,1.673322939,,,
02.254,1.657823307,,,
02.256,1.712072021,,,
02.258,1.774070551,,,
02.260,1.952316325,,,
02.262,2.029814488,,,
02.264,2.060813753,,,
02.266,1.975565774,,,
02.268,1.92131706,,,
02.270,1.758570918,,,
02.272,1.619074225,,,
02.274,1.541576063,,,
02.276,1.572575328,,,
02.278,1.696572388,,,
02.280,1.85931853,,,
02.282,1.936816693,,,
02.284,1.967815958,,,
02.286,1.843818897,,,
02.288,1.836069081,,,
02.290,1.657823307,,,
02.292,1.580325144,,,
02.294,1.549325879,,,
02.296,1.611324409,,,
02.298,1.681072755,,,
02.300,1.843818897,,,
02.302,1.898067611,,,
02.304,1.913567244,,,
02.306,1.890317795,,,
02.308,1.820569448,,,
02.310,1.65007349,,,
02.312,1.572575328,,,
02.314,1.541576063,,,
02.316,1.603574593,,,
02.318,1.665573123,,,
02.320,1.85931853,,,
02.322,1.936816693,,,
02.324,1.944566509,,,
02.326,1.843818897,,,
02.328,1.851568714,,,
02.330,1.712072021,,,
02.332,1.580325144,,,
02.334,1.533826246,,,
02.336,1.603574593,,,
02.338,1.642323674,,,
02.340,1.805069816,,,
02.342,1.92131706,,,
02.344,1.967815958,,,
02.346,1.905817427,,,
02.348,1.766320735,,,
02.350,1.665573123,,,
02.352,1.510576797,,,
02.354,1.533826246,,,
02.356,1.65007349,,,
02.358,1.642323674,,,
02.360,1.820569448,,,
02.362,1.936816693,,,
02.364,1.967815958,,,
02.366,1.85931853,,,
02.368,1.867068346,,,
02.370,1.781820367,,,
02.372,1.704322204,,,
02.374,1.820569448,,,
02.376,1.929066876,,,
02.378,2.107312651,,,
02.380,2.324307506,,,
02.382,2.58780126,,,
02.384,2.665299422,,,
02.386,2.64979979,,,
02.388,2.789296483,,,
02.390,2.525802729,,,
02.392,2.293308241,,,
02.394,2.262308976,,,
02.396,2.122812283,,,
02.398,2.014314855,,,
02.400,2.146061732,,,
02.402,2.04531412,,,
02.404,1.944566509,,,
02.406,1.712072021,,,
02.408,1.580325144,,,
02.410,1.324581207,,,
02.412,1.216083779,,,
02.414,1.208333963,,,
02.416,1.40207937,,,
02.418,1.448578267,,,
02.420,1.626824042,,,
02.422,1.727571653,,,
02.424,1.735321469,,,
02.426,1.688822572,,,
02.428,1.712072021,,,
02.430,1.58807496,,,
02.432,1.541576063,,,
02.434,1.58807496,,,
02.436,1.634573858,,,
02.438,1.766320735,,,
02.440,1.952316325,,,
02.442,2.006565039,,,
02.444,1.991065406,,,
02.446,1.905817427,,,
02.448,1.781820367,,,
02.450,1.549325879,,,
02.452,1.611324409,,,
02.454,1.65007349,,,
02.456,1.750821102,,,
02.458,1.820569448,,,
02.460,1.960066141,,,
02.462,2.037564304,,,
02.464,2.04531412,,,
02.466,1.913567244,,,
02.468,1.79732,,,
02.470,1.688822572,,,
02.472,1.595824776,,,
02.474,1.65007349,,,
02.476,1.750821102,,,
02.478,1.851568714,,,
02.480,1.936816693,,,
02.482,1.998815223,,,
02.484,2.037564304,,,
02.486,1.967815958,,,
02.488,1.789570183,,,
02.490,1.65007349,,,
02.492,1.626824042,,,
02.494,1.673322939,,,
02.496,1.79732,,,
02.498,1.882567979,,,
02.500,1.975565774,,,
02.502,2.04531412,,,
02.504,2.022064672,,,
02.506,1.975565774,,,
02.508,1.905817427,,,
02.510,1.681072755,,,
02.512,1.619074225,,,
02.514,1.743071286,,,
02.516,1.79732,,,
02.518,1.85931853,,,
02.520,2.115062467,,,
02.522,2.19256063,,,
02.524,2.04531412,,,
02.526,1.967815958,,,
02.528,1.812819632,,,
02.530,1.758570918,,,
02.532,1.603574593,,,
02.534,1.65007349,,,
02.536,1.92131706,,,
02.538,1.991065406,,,
02.540,2.099562834,,,
02.542,2.091813018,,,
02.544,2.006565039,,,
02.546,1.975565774,,,
02.548,1.867068346,,,
02.550,1.743071286,,,
02.552,1.781820367,,,
02.554,1.820569448,,,
02.556,1.828319265,,,
02.558,1.975565774,,,
02.560,2.146061732,,,
02.562,2.138311916,,,
02.564,2.19256063,,,
02.566,2.146061732,,,
02.568,1.929066876,,,
02.570,1.805069816,,,
02.572,1.789570183,,,
02.574,1.820569448,,,
02.576,1.998815223,,,
02.578,2.177060997,,,
02.580,2.370806404,,,
02.582,2.200310446,,,
02.584,2.25455916,,,
02.586,2.339807139,,,
02.588,1.98331559,,,
02.590,1.882567979,,,
02.592,1.85931853,,,
02.594,1.882567979,,,
02.596,2.169311181,,,
02.598,2.223559895,,,
02.600,2.332057323,,,
02.602,2.580051443,,,
02.604,2.448304567,,,
02.606,2.339807139,,,
02.608,2.262308976,,,
02.610,2.022064672,,,
02.612,1.975565774,,,
02.614,2.084063202,,,
02.616,2.239059527,,,
02.618,2.417305302,,,
02.620,2.432804934,,,
02.622,2.595551076,,,
02.624,2.595551076,,,
02.626,2.456054383,,,
02.628,2.246809344,,,
02.630,2.246809344,,,
02.632,2.130562099,,,
02.634,2.223559895,,,
02.636,2.409555485,,,
02.638,2.487053648,,,
02.640,2.572301627,,,
02.642,2.510303097,,,
02.644,2.595551076,,,
02.646,2.479303832,,,
02.648,2.215810078,,,
02.650,2.239059527,,,
02.652,2.138311916,,,
02.654,2.122812283,,,
02.656,2.262308976,,,
02.658,2.409555485,,,
02.660,2.432804934,,,
02.662,2.556801994,,,
02.664,2.417305302,,,
02.666,2.184810813,,,
02.668,1.952316325,,,
02.670,2.153811548,,,
02.672,1.960066141,,,
02.674,1.944566509,,,
02.676,2.115062467,,,
02.678,2.208060262,,,
02.680,2.270058792,,,
02.682,2.161561364,,,
02.684,2.115062467,,,
02.686,2.060813753,,,
02.688,1.936816693,,,
02.690,1.944566509,,,
02.692,1.820569448,,,
02.694,1.890317795,,,
02.696,1.805069816,,,
02.698,2.115062467,,,
02.700,2.239059527,,,
02.702,2.293308241,,,
02.704,2.115062467,,,
02.706,2.022064672,,,
02.708,1.828319265,,,
02.710,1.727571653,,,
02.712,1.619074225,,,
02.714,1.727571653,,,
02.716,1.890317795,,,
02.718,2.122812283,,,
02.720,2.053063937,,,
02.722,2.099562834,,,
02.724,1.991065406,,,
02.726,1.85931853,,,
02.728,1.789570183,,,
02.730,1.774070551,,,
02.732,1.789570183,,,
02.734,1.812819632,,,
02.736,1.960066141,,,
02.738,1.98331559,,,
02.740,2.200310446,,,
02.742,2.006565039,,,
02.744,2.022064672,,,
02.746,1.929066876,,,
02.748,1.681072755,,,
02.750,1.688822572,,,
02.752,1.634573858,,,
02.754,1.805069816,,,
02.756,1.913567244,,,
02.758,2.029814488,,,
02.760,2.146061732,,,
02.762,2.084063202,,,
02.764,1.929066876,,,
02.766,1.898067611,,,
02.768,1.758570918,,,
02.770,1.750821102,,,
02.772,1.820569448,,,
02.774,1.92131706,,,
02.776,1.936816693,,,
02.778,1.98331559,,,
02.780,2.076313385,,,
02.782,2.146061732,,,
02.784,2.053063937,,,
02.786,1.905817427,,,
02.788,1.789570183,,,
02.790,1.743071286,,,
02.792,1.774070551,,,
02.794,1.758570918,,,
02.796,1.936816693,,,
02.798,2.084063202,,,
02.800,2.161561364,,,
02.802,2.115062467,,,
02.804,1.967815958,,,
02.806,1.85931853,,,
02.808,1.820569448,,,
02.810,1.681072755,,,
02.812,1.704322204,,,
02.814,1.766320735,,,
02.816,1.905817427,,,
02.818,2.037564304,,,
02.820,2.19256063,,,
02.822,2.130562099,,,
02.824,2.107312651,,,
02.826,1.843818897,,,
02.828,1.735321469,,,
02.830,1.657823307,,,
02.832,1.673322939,,,
02.834,1.789570183,,,
02.836,1.967815958,,,
02.838,1.998815223,,,
02.840,2.037564304,,,
02.842,2.014314855,,,
02.844,1.944566509,,,
02.846,1.750821102,,,
02.848,1.688822572,,,
02.850,1.743071286,,,
02.852,1.766320735,,,
02.854,1.766320735,,,
02.856,1.967815958,,,
02.858,2.006565039,,,
02.860,2.053063937,,,
02.862,2.138311916,,,
02.864,2.006565039,,,
02.866,1.836069081,,,
02.868,1.681072755,,,
02.870,1.712072021,,,
02.872,1.774070551,,,
02.874,1.828319265,,,
02.876,1.944566509,,,
02.878,2.084063202,,,
02.880,2.138311916,,,
02.882,2.029814488,,,
02.884,1.991065406,,,
02.886,1.820569448,,,
02.888,1.750821102,,,
02.890,1.696572388,,,
02.892,1.727571653,,,
02.894,1.774070551,,,
02.896,1.882567979,,,
02.898,2.107312651,,,
02.900,2.270058792,,,
02.902,2.107312651,,,
02.904,1.92131706,,,
02.906,1.743071286,,,
02.908,1.619074225,,,
02.910,1.595824776,,,
02.912,1.704322204,,,
02.914,1.758570918,,,
02.916,1.998815223,,,
02.918,1.98331559,,,
02.920,1.975565774,,,
02.922,2.014314855,,,
02.924,1.98331559,,,
02.926,1.805069816,,,
02.928,1.626824042,,,
02.930,1.626824042,,,
02.932,1.719821837,,,
02.934,1.812819632,,,
02.936,1.960066141,,,
02.938,2.161561364,,,
02.940,2.068563569,,,
02.942,2.091813018,,,
02.944,1.952316325,,,
02.946,1.611324409,,,
02.948,1.750821102,,,
02.950,1.704322204,,,
02.952,1.704322204,,,
02.954,1.812819632,,,
02.956,2.022064672,,,
02.958,2.053063937,,,
02.960,2.053063937,,,
02.962,1.98331559,,,
02.964,1.92131706,,,
02.966,1.719821837,,,
02.968,1.634573858,,,
02.970,1.603574593,,,
02.972,1.688822572,,,
02.974,1.882567979,,,
02.976,2.029814488,,,
02.978,2.138311916,,,
02.980,2.107312651,,,
02.982,2.04531412,,,
02.984,1.874818162,,,
02.986,1.758570918,,,
02.988,1.704322204,,,
02.990,1.619074225,,,
02.992,1.704322204,,,
02.994,1.812819632,,,
02.996,1.998815223,,,
02.998,2.122812283,,,
03.000,2.068563569,,,
03.002,1.936816693,,,
03.004,1.960066141,,,
03.006,1.743071286,,,
03.008,1.696572388,,,
03.010,1.750821102,,,
03.012,1.774070551,,,
03.014,1.851568714,,,
03.016,2.014314855,,,
03.018,2.076313385,,,
03.020,2.076313385,,,
03.022,1.998815223,,,
03.024,1.905817427,,,
03.026,1.727571653,,,
03.028,1.781820367,,,
03.030,1.758570918,,,
03.032,1.85931853,,,
03.034,2.029814488,,,
03.036,2.169311181,,,
03.038,2.177060997,,,
03.040,2.153811548,,,
03.042,2.153811548,,,
03.044,1.967815958,,,
03.046,1.843818897,,,
03.048,1.789570183,,,
03.050,1.882567979,,,
03.052,1.874818162,,,
03.054,2.022064672,,,
03.056,2.215810078,,,
03.058,2.246809344,,,
03.060,2.231309711,,,
03.062,2.138311916,,,
03.064,1.991065406,,,
03.066,1.882567979,,,
03.068,1.774070551,,,
03.070,1.789570183,,,
03.072,1.867068346,,,
03.074,1.967815958,,,
03.076,2.076313385,,,
03.078,2.200310446,,,
03.080,2.014314855,,,
03.082,1.867068346,,,
03.084,1.952316325,,,
03.086,1.774070551,,,
03.088,1.65007349,,,
03.090,1.735321469,,,
03.092,1.805069816,,,
03.094,1.92131706,,,
03.096,2.04531412,,,
03.098,2.091813018,,,
03.100,2.029814488,,,
03.102,2.014314855,,,
03.104,1.85931853,,,
03.106,1.735321469,,,
03.108,1.642323674,,,
03.110,1.712072021,,,
03.112,1.774070551,,,
03.114,1.820569448,,,
03.116,2.060813753,,,
03.118,2.099562834,,,
03.120,2.076313385,,,
03.122,2.084063202,,,
03.124,1.781820367,,,
03.126,1.727571653,,,
03.128,1.704322204,,,
03.130,1.735321469,,,
03.132,1.812819632,,,
03.134,1.936816693,,,
03.136,2.091813018,,,
03.138,2.153811548,,,
03.140,2.037564304,,,
03.142,1.975565774,,,
03.144,1.820569448,,,
03.146,1.712072021,,,
03.148,1.65007349,,,
03.150,1.712072021,,,
03.152,1.851568714,,,
03.154,2.006565039,,,
03.156,2.099562834,,,
03.158,2.184810813,,,
03.160,2.04531412,,,
03.162,1.905817427,,,
03.164,1.79732,,,
03.166,1.681072755,,,
03.168,1.735321469,,,
03.170,1.743071286,,,
03.172,1.789570183,,,
03.174,1.967815958,,,
03.176,2.146061732,,,
03.178,2.19256063,,,
03.180,2.246809344,,,
03.182,2.347556955,,,
03.184,2.223559895,,,
03.186,2.107312651,,,
03.188,2.223559895,,,
03.190,2.525802729,,,
03.192,2.727297952,,,
03.194,2.975292073,,,
03.196,3.10703895,,,
03.198,3.052790236,,,
03.200,2.804796115,,,
03.202,2.549052178,,,
03.204,2.285558425,,,
03.206,2.068563569,,,
03.208,1.967815958,,,
03.210,1.836069081,,,
03.212,1.712072021,,,
03.214,1.851568714,,,
03.216,1.820569448,,,
03.218,1.805069816,,,
03.220,1.750821102,,,
03.222,1.743071286,,,
03.224,1.510576797,,,
03.226,1.425328818,,,
03.228,1.440828451,,,
03.230,1.557075695,,,
03.232,1.634573858,,,
03.234,1.929066876,,,
03.236,1.98331559,,,
03.238,2.068563569,,,
03.240,1.975565774,,,
03.242,1.967815958,,,
03.244,1.828319265,,,
03.246,1.735321469,,,
03.248,1.743071286,,,
03.250,1.828319265,,,
03.252,1.929066876,,,
03.254,2.060813753,,,
03.256,2.146061732,,,
03.258,2.223559895,,,
03.260,2.107312651,,,
03.262,2.006565039,,,
03.264,1.890317795,,,
03.266,1.743071286,,,
03.268,1.805069816,,,
03.270,1.766320735,,,
03.272,1.936816693,,,
03.274,2.099562834,,,
03.276,2.115062467,,,
03.278,2.19256063,,,
03.280,2.153811548,,,
03.282,2.053063937,,,
03.284,1.851568714,,,
03.286,1.719821837,,,
03.288,1.828319265,,,
03.290,1.85931853,,,
03.292,1.975565774,,,
03.294,2.146061732,,,
03.296,2.223559895,,,
03.298,2.25455916,,,
03.300,2.146061732,,,
03.302,2.076313385,,,
03.304,1.92131706,,,
03.306,1.828319265,,,
03.308,1.812819632,,,
03.310,1.991065406,,,
03.312,2.060813753,,,
03.314,2.231309711,,,
03.316,2.25455916,,,
03.318,2.208060262,,,
03.320,2.122812283,,,
03.322,2.060813753,,,
03.324,1.905817427,,,
03.326,1.851568714,,,
03.328,1.843818897,,,
03.330,1.898067611,,,
03.332,2.068563569,,,
03.334,2.169311181,,,
03.336,2.184810813,,,
03.338,2.246809344,,,
03.340,2.332057323,,,
03.342,2.122812283,,,
03.344,2.029814488,,,
03.346,1.874818162,,,
03.348,1.944566509,,,
03.350,2.04531412,,,
03.352,2.04531412,,,
03.354,2.208060262,,,
03.356,2.25455916,,,
03.358,2.25455916,,,
03.360,2.293308241,,,
03.362,2.130562099,,,
03.364,1.898067611,,,
03.366,1.960066141,,,
03.368,2.04531412,,,
03.370,2.122812283,,,
03.372,2.262308976,,,
03.374,2.347556955,,,
03.376,2.417305302,,,
03.378,2.370806404,,,
03.380,2.347556955,,,
03.382,2.138311916,,,
03.384,2.091813018,,,
03.386,2.084063202,,,
03.388,2.130562099,,,
03.390,2.200310446,,,
03.392,2.347556955,,,
03.394,2.448304567,,,
03.396,2.479303832,,,
03.398,2.502553281,,,
03.400,2.339807139,,,
03.402,2.324307506,,,
03.404,2.146061732,,,
03.406,2.177060997,,,
03.408,2.184810813,,,
03.410,2.324307506,,,
03.412,2.386306036,,,
03.414,2.564551811,,,
03.416,2.77379685,,,
03.418,2.618800525,,,
03.420,2.525802729,,,
03.422,2.456054383,,,
03.424,2.308807874,,,
03.426,2.301058057,,,
03.428,2.347556955,,,
03.430,2.409555485,,,
03.432,2.626550341,,,
03.434,2.735047769,,,
03.436,2.83579538,,,
03.438,2.71179832,,,
03.440,2.657549606,,,
03.442,2.525802729,,,
03.444,2.409555485,,,
03.446,2.363056588,,,
03.448,2.471554015,,,
03.450,2.463804199,,,
03.452,2.657549606,,,
03.454,2.742797585,,,
03.456,2.735047769,,,
03.458,2.634300157,,,
03.460,2.580051443,,,
03.462,2.432804934,,,
03.464,2.308807874,,,
03.466,2.223559895,,,
03.468,2.285558425,,,
03.470,2.409555485,,,
03.472,2.564551811,,,
03.474,2.611050708,,,
03.476,2.541302362,,,
03.478,2.479303832,,,
03.480,2.44055475,,,
03.482,2.200310446,,,
03.484,2.068563569,,,
03.486,2.060813753,,,
03.488,2.138311916,,,
03.490,2.169311181,,,
03.492,2.324307506,,,
03.494,2.394055853,,,
03.496,2.394055853,,,
03.498,2.270058792,,,
03.500,2.223559895,,,
03.502,1.998815223,,,
03.504,2.029814488,,,
03.506,1.905817427,,,
03.508,1.882567979,,,
03.510,2.076313385,,,
03.512,2.200310446,,,
03.514,2.401805669,,,
03.516,2.370806404,,,
03.518,2.339807139,,,
03.520,2.138311916,,,
03.522,2.029814488,,,
03.524,1.936816693,,,
03.526,1.905817427,,,
03.528,1.98331559,,,
03.530,2.099562834,,,
03.532,2.19256063,,,
03.534,2.231309711,,,
03.536,2.270058792,,,
03.538,2.177060997,,,
03.540,2.014314855,,,
03.542,1.967815958,,,
03.544,1.874818162,,,
03.546,1.92131706,,,
03.548,2.053063937,,,
03.550,2.068563569,,,
03.552,2.208060262,,,
03.554,2.293308241,,,
03.556,2.239059527,,,
03.558,2.246809344,,,
03.560,2.138311916,,,
03.562,2.006565039,,,
03.564,1.913567244,,,
03.566,1.905817427,,,
03.568,1.975565774,,,
03.570,2.053063937,,,
03.572,2.25455916,,,
03.574,2.246809344,,,
03.576,2.246809344,,,
03.578,2.19256063,,,
03.580,2.053063937,,,
03.582,1.998815223,,,
03.584,1.85931853,,,
03.586,1.936816693,,,
03.588,1.975565774,,,
03.590,2.053063937,,,
03.592,2.19256063,,,
03.594,2.31655769,,,
03.596,2.301058057,,,
03.598,2.200310446,,,
03.600,2.130562099,,,
03.602,1.929066876,,,
03.604,1.898067611,,,
03.606,1.967815958,,,
03.608,1.998815223,,,
03.610,2.099562834,,,
03.612,2.324307506,,,
03.614,2.370806404,,,
03.616,2.25455916,,,
03.618,2.130562099,,,
03.620,2.014314855,,,
03.622,2.029814488,,,
03.624,1.975565774,,,
03.626,1.929066876,,,
03.628,1.975565774,,,
03.630,2.068563569,,,
03.632,2.200310446,,,
03.634,2.332057323,,,
03.636,2.324307506,,,
03.638,2.223559895,,,
03.640,2.037564304,,,
03.642,1.882567979,,,
03.644,1.905817427,,,
03.646,1.874818162,,,
03.648,1.929066876,,,
03.650,2.146061732,,,
03.652,2.19256063,,,
03.654,2.262308976,,,
03.656,2.138311916,,,
03.658,2.138311916,,,
03.660,2.068563569,,,
03.662,1.867068346,,,
03.664,1.867068346,,,
03.666,1.929066876,,,
03.668,1.98331559,,,
03.670,2.099562834,,,
03.672,2.208060262,,,
03.674,2.308807874,,,
03.676,2.239059527,,,
03.678,2.130562099,,,
03.680,1.991065406,,,
03.682,1.905817427,,,
03.684,1.851568714,,,
03.686,1.85931853,,,
03.688,2.022064672,,,
03.690,2.076313385,,,
03.692,2.277808609,,,
03.694,2.308807874,,,
03.696,2.169311181,,,
03.698,2.169311181,,,
03.700,2.04531412,,,
03.702,1.867068346,,,
03.704,1.890317795,,,
03.706,1.851568714,,,
03.708,1.975565774,,,
03.710,2.107312651,,,
03.712,2.301058057,,,
03.714,2.262308976,,,
03.716,2.130562099,,,
03.718,2.053063937,,,
03.720,1.952316325,,,
03.722,1.843818897,,,
03.724,1.836069081,,,
03.726,1.874818162,,,
03.728,1.936816693,,,
03.730,2.146061732,,,
03.732,2.215810078,,,
03.734,2.332057323,,,
03.736,2.107312651,,,
03.738,2.068563569,,,
03.740,1.991065406,,,
03.742,1.820569448,,,
03.744,1.805069816,,,
03.746,2.006565039,,,
03.748,1.952316325,,,
03.750,2.208060262,,,
03.752,2.19256063,,,
03.754,2.246809344,,,
03.756,2.293308241,,,
03.758,2.161561364,,,
03.760,2.006565039,,,
03.762,1.905817427,,,
03.764,1.913567244,,,
03.766,1.98331559,,,
03.768,2.084063202,,,
03.770,2.246809344,,,
03.772,2.246809344,,,
03.774,2.293308241,,,
03.776,2.270058792,,,
03.778,2.246809344,,,
03.780,2.076313385,,,
03.782,1.890317795,,,
03.784,1.92131706,,,
03.786,1.991065406,,,
03.788,2.060813753,,,
03.790,2.262308976,,,
03.792,2.293308241,,,
03.794,2.285558425,,,
03.796,2.215810078,,,
03.798,2.115062467,,,
03.800,1.913567244,,,
03.802,1.867068346,,,
03.804,1.828319265,,,
03.806,1.851568714,,,
03.808,1.952316325,,,
03.810,2.099562834,,,
03.812,2.146061732,,,
03.814,2.184810813,,,
03.816,2.138311916,,,
03.818,1.98331559,,,
03.820,1.882567979,,,
03.822,1.750821102,,,
03.824,1.743071286,,,
03.826,1.882567979,,,
03.828,2.006565039,,,
03.830,2.091813018,,,
03.832,2.161561364,,,
03.834,2.107312651,,,
03.836,2.068563569,,,
03.838,1.967815958,,,
03.840,1.79732,,,
03.842,1.789570183,,,
03.844,1.812819632,,,
03.846,1.79732,,,
03.848,1.936816693,,,
03.850,2.029814488,,,
03.852,2.107312651,,,
03.854,2.153811548,,,
03.856,2.04531412,,,
03.858,1.998815223,,,
03.860,1.719821837,,,
03.862,1.719821837,,,
03.864,1.743071286,,,
03.866,1.743071286,,,
03.868,2.022064672,,,
03.870,2.014314855,,,
03.872,2.138311916,,,
03.874,2.060813753,,,
03.876,1.92131706,,,
03.878,1.936816693,,,
03.880,1.781820367,,,
03.882,1.681072755,,,
03.884,1.696572388,,,
03.886,1.820569448,,,
03.888,1.929066876,,,
03.890,2.138311916,,,
03.892,2.115062467,,,
03.894,2.037564304,,,
03.896,1.913567244,,,
03.898,1.820569448,,,
03.900,1.758570918,,,
03.902,1.634573858,,,
03.904,1.611324409,,,
03.906,1.719821837,,,
03.908,1.944566509,,,
03.910,2.107312651,,,
03.912,2.285558425,,,
03.914,2.324307506,,,
03.916,2.347556955,,,
03.918,2.184810813,,,
03.920,2.239059527,,,
03.922,2.394055853,,,
03.924,2.541302362,,,
03.926,2.727297952,,,
03.928,2.913293543,,,
03.930,2.975292073,,,
03.932,2.897793911,,,
03.934,2.750547401,,,
03.936,2.425055118,,,
03.938,2.200310446,,,
03.940,1.975565774,,,
03.942,1.750821102,,,
03.944,1.518326614,,,
03.946,1.495077165,,,
03.948,1.681072755,,,
03.950,1.572575328,,,
03.952,1.673322939,,,
03.954,1.781820367,,,
03.956,1.549325879,,,
03.958,1.448578267,,,
03.960,1.40207937,,,
03.962,1.386579737,,,
03.964,1.417579002,,,
03.966,1.495077165,,,
03.968,1.727571653,,,
03.970,1.836069081,,,
03.972,1.967815958,,,
03.974,1.967815958,,,
03.976,1.936816693,,,
03.978,1.79732,,,
03.980,1.564825511,,,
03.982,1.58807496,,,
03.984,1.735321469,,,
03.986,1.79732,,,
03.988,1.991065406,,,
03.990,1.936816693,,,
03.992,1.936816693,,,
03.994,1.967815958,,,
03.996,1.867068346,,,
03.998,1.843818897,,,
04.000,1.696572388,,,
04.002,1.673322939,,,
04.004,1.781820367,,,
04.006,1.789570183,,,
04.008,1.874818162,,,
04.010,2.014314855,,,
04.012,2.022064672,,,
04.014,1.991065406,,,
04.016,1.952316325,,,
04.018,1.85931853,,,
04.020,1.595824776,,,
04.022,1.657823307,,,
04.024,1.642323674,,,
04.026,1.65007349,,,
04.028,1.952316325,,,
04.030,2.099562834,,,
04.032,1.998815223,,,
04.034,1.936816693,,,
04.036,1.944566509,,,
04.038,1.712072021,,,
04.040,1.673322939,,,
04.042,1.673322939,,,
04.044,1.696572388,,,
04.046,1.657823307,,,
04.048,1.936816693,,,
04.050,2.04531412,,,
04.052,2.060813753,,,
04.054,1.944566509,,,
04.056,1.898067611,,,
04.058,1.758570918,,,
04.060,1.564825511,,,
04.062,1.626824042,,,
04.064,1.727571653,,,
04.066,1.758570918,,,
04.068,1.998815223,,,
04.070,2.04531412,,,
04.072,2.037564304,,,
04.074,1.944566509,,,
04.076,1.867068346,,,
04.078,1.727571653,,,
04.080,1.681072755,,,
04.082,1.704322204,,,
04.084,1.719821837,,,
04.086,1.836069081,,,
04.088,1.929066876,,,
04.090,1.998815223,,,
04.092,2.006565039,,,
04.094,1.898067611,,,
04.096,1.898067611,,,
04.098,1.750821102,,,
04.100,1.619074225,,,
04.102,1.727571653,,,
04.104,1.766320735,,,
04.106,1.851568714,,,
04.108,2.060813753,,,
04.110,2.19256063,,,
04.112,2.184810813,,,
04.114,2.060813753,,,
04.116,1.98331559,,,
04.118,1.758570918,,,
04.120,1.774070551,,,
04.122,1.805069816,,,
04.124,1.898067611,,,
04.126,1.944566509,,,
04.128,2.122812283,,,
04.130,2.293308241,,,
04.132,2.200310446,,,
04.134,2.153811548,,,
04.136,1.975565774,,,
04.138,1.898067611,,,
04.140,1.882567979,,,
04.142,1.92131706,,,
04.144,2.022064672,,,
04.146,2.053063937,,,
04.148,2.270058792,,,
04.150,2.370806404,,,
04.152,2.308807874,,,
04.154,2.200310446,,,
04.156,2.161561364,,,
04.158,2.060813753,,,
04.160,1.967815958,,,
04.162,2.006565039,,,
04.164,2.053063937,,,
04.166,2.200310446,,,
04.168,2.370806404,,,
04.170,2.425055118,,,
04.172,2.409555485,,,
04.174,2.262308976,,,
04.176,2.169311181,,,
04.178,2.014314855,,,
04.180,2.006565039,,,
04.182,2.084063202,,,
04.184,2.053063937,,,
04.186,2.122812283,,,
04.188,2.31655769,,,
04.190,2.401805669,,,
04.192,2.293308241,,,
04.194,2.130562099,,,
04.196,2.022064672,,,
04.198,1.805069816,,,
04.200,1.890317795,,,
04.202,1.898067611,,,
04.204,1.92131706,,,
04.206,2.060813753,,,
04.208,2.138311916,,,
04.210,2.177060997,,,
04.212,2.084063202,,,
04.214,1.975565774,,,
04.216,1.789570183,,,
04.218,1.696572388,,,
04.220,1.52607643,,,
04.222,1.719821837,,,
04.224,1.781820367,,,
04.226,1.79732,,,
04.228,1.874818162,,,
04.230,1.975565774,,,
04.232,1.890317795,,,
04.234,1.789570183,,,
04.236,1.673322939,,,
04.238,1.533826246,,,
04.240,1.40207937,,,
04.242,1.510576797,,,
04.244,1.533826246,,,
04.246,1.719821837,,,
04.248,1.79732,,,
04.250,1.890317795,,,
04.252,1.750821102,,,
04.254,1.642323674,,,
04.256,1.510576797,,,
04.258,1.371080105,,,
04.260,1.40207937,,,
04.262,1.440828451,,,
04.264,1.448578267,,,
04.266,1.774070551,,,
04.268,1.812819632,,,
04.270,1.805069816,,,
04.272,1.712072021,,,
04.274,1.657823307,,,
04.276,1.456328084,,,
04.278,1.471827716,,,
04.280,1.324581207,,,
04.282,1.456328084,,,
04.284,1.456328084,,,
04.286,1.619074225,,,
04.288,1.743071286,,,
04.290,1.758570918,,,
04.292,1.735321469,,,
04.294,1.611324409,,,
04.296,1.479577532,,,
04.298,1.394329553,,,
04.300,1.301331758,,,
04.302,1.409829186,,,
04.304,1.541576063,,,
04.306,1.642323674,,,
04.308,1.712072021,,,
04.310,1.758570918,,,
04.312,1.704322204,,,
04.314,1.634573858,,,
04.316,1.409829186,,,
04.318,1.301331758,,,
04.320,1.371080105,,,
04.322,1.386579737,,,
04.324,1.479577532,,,
04.326,1.595824776,,,
04.328,1.727571653,,,
04.330,1.719821837,,,
04.332,1.657823307,,,
04.334,1.595824776,,,
04.336,1.433078635,,,
04.338,1.347830656,,,
04.340,1.316831391,,,
04.342,1.433078635,,,
04.344,1.40207937,,,
04.346,1.619074225,,,
04.348,1.735321469,,,
04.350,1.673322939,,,
04.352,1.65007349,,,
04.354,1.425328818,,,
04.356,1.363330288,,,
04.358,1.332331023,,,
04.360,1.270332493,,,
04.362,1.309081574,,,
04.364,1.440828451,,,
04.366,1.626824042,,,
04.368,1.665573123,,,
04.370,1.657823307,,,
04.372,1.580325144,,,
04.374,1.510576797,,,
04.376,1.332331023,,,
04.378,1.278082309,,,
04.380,1.324581207,,,
04.382,1.332331023,,,
04.384,1.440828451,,,
04.386,1.541576063,,,
04.388,1.65007349,,,
04.390,1.774070551,,,
04.392,1.595824776,,,
04.394,1.52607643,,,
04.396,1.332331023,,,
04.398,1.285832126,,,
04.400,1.185084514,,,
04.402,1.332331023,,,
04.404,1.440828451,,,
04.406,1.603574593,,,
04.408,1.603574593,,,
04.410,1.665573123,,,
04.412,1.65007349,,,
04.414,1.557075695,,,
04.416,1.363330288,,,
04.418,1.293581942,,,
04.420,1.332331023,,,
04.422,1.371080105,,,
04.424,1.510576797,,,
04.426,1.673322939,,,
04.428,1.719821837,,,
04.430,1.65007349,,,
04.432,1.564825511,,,
04.434,1.52607643,,,
04.436,1.355580472,,,
04.438,1.285832126,,,
04.440,1.347830656,,,
04.442,1.409829186,,,
04.444,1.479577532,,,
04.446,1.673322939,,,
04.448,1.851568714,,,
04.450,1.735321469,,,
04.452,1.727571653,,,
04.454,1.541576063,,,
04.456,1.433078635,,,
04.458,1.417579002,,,
04.460,1.479577532,,,
04.462,1.510576797,,,
04.464,1.595824776,,,
04.466,1.719821837,,,
04.468,1.774070551,,,
04.470,1.774070551,,,
04.472,1.727571653,,,
04.474,1.595824776,,,
04.476,1.378829921,,,
04.478,1.347830656,,,
04.480,1.340080839,,,
04.482,1.448578267,,,
04.484,1.510576797,,,
04.486,1.719821837,,,
04.488,1.665573123,,,
04.490,1.634573858,,,
04.492,1.603574593,,,
04.494,1.285832126,,,
04.496,1.278082309,,,
04.498,1.371080105,,,
04.500,1.409829186,,,
04.502,1.386579737,,,
04.504,1.425328818,,,
04.506,1.611324409,,,
04.508,1.681072755,,,
04.510,1.541576063,,,
04.512,1.541576063,,,
04.514,1.549325879,,,
04.516,1.278082309,,,
04.518,1.200584147,,,
04.520,1.301331758,,,
04.522,1.340080839,,,
04.524,1.495077165,,,
04.526,1.557075695,,,
04.528,1.696572388,,,
04.530,1.704322204,,,
04.532,1.541576063,,,
04.534,1.409829186,,,
04.536,1.347830656,,,
04.538,1.293581942,,,
04.540,1.355580472,,,
04.542,1.40207937,,,
04.544,1.518326614,,,
04.546,1.642323674,,,
04.548,1.696572388,,,
04.550,1.611324409,,,
04.552,1.541576063,,,
04.554,1.440828451,,,
04.556,1.301331758,,,
04.558,1.278082309,,,
04.560,1.301331758,,,
04.562,1.340080839,,,
04.564,1.781820367,,,
04.566,1.805069816,,,
04.568,1.712072021,,,
04.570,1.743071286,,,
04.572,1.564825511,,,
04.574,1.40207937,,,
04.576,1.340080839,,,
04.578,1.316831391,,,
04.580,1.324581207,,,
04.582,1.309081574,,,
04.584,1.487327349,,,
04.586,1.619074225,,,
04.588,1.657823307,,,
04.590,1.743071286,,,
04.592,1.750821102,,,
04.594,1.572575328,,,
04.596,1.564825511,,,
04.598,1.65007349,,,
04.600,1.843818897,,,
04.602,1.92131706,,,
04.604,2.31655769,,,
04.606,2.510303097,,,
04.608,2.735047769,,,
04.610,2.603300892,,,
04.612,2.487053648,,,
04.614,2.25455916,,,
04.616,2.029814488,,,
04.618,1.812819632,,,
04.620,1.805069816,,,
04.622,1.712072021,,,
04.624,1.688822572,,,
04.626,1.58807496,,,
04.628,1.611324409,,,
04.630,1.471827716,,,
04.632,1.324581207,,,
04.634,1.1308358,,,
04.636,1.053337637,,,
04.638,1.037838005,,,
04.640,1.185084514,,,
04.642,1.278082309,,,
04.644,1.510576797,,,
04.646,1.541576063,,,
04.648,1.533826246,,,
04.650,1.510576797,,,
04.652,1.533826246,,,
04.654,1.386579737,,,
04.656,1.409829186,,,
04.658,1.433078635,,,
04.660,1.533826246,,,
04.662,1.549325879,,,
04.664,1.820569448,,,
04.666,1.905817427,,,
04.668,1.836069081,,,
04.670,1.611324409,,,
04.672,1.65007349,,,
04.674,1.557075695,,,
04.676,1.471827716,,,
04.678,1.580325144,,,
04.680,1.557075695,,,
04.682,1.634573858,,,
04.684,1.836069081,,,
04.686,1.960066141,,,
04.688,1.890317795,,,
04.690,1.681072755,,,
04.692,1.681072755,,,
04.694,1.518326614,,,
04.696,1.557075695,,,
04.698,1.580325144,,,
04.700,1.634573858,,,
04.702,1.805069816,,,
04.704,1.874818162,,,
04.706,1.952316325,,,
04.708,1.944566509,,,
04.710,1.898067611,,,
04.712,1.812819632,,,
04.714,1.580325144,,,
04.716,1.580325144,,,
04.718,1.696572388,,,
04.720,1.665573123,,,
04.722,1.805069816,,,
04.724,2.122812283,,,
04.726,2.084063202,,,
04.728,2.084063202,,,
04.730,1.952316325,,,
04.732,1.85931853,,,
04.734,1.704322204,,,
04.736,1.657823307,,,
04.738,1.712072021,,,
04.740,1.882567979,,,
04.742,1.929066876,,,
04.744,2.153811548,,,
04.746,2.184810813,,,
04.748,2.169311181,,,
04.750,2.014314855,,,
04.752,1.991065406,,,
04.754,1.789570183,,,
04.756,1.696572388,,,
04.758,1.85931853,,,
04.760,1.929066876,,,
04.762,2.053063937,,,
04.764,2.19256063,,,
04.766,2.200310446,,,
04.768,2.184810813,,,
04.770,2.262308976,,,
04.772,2.138311916,,,
04.774,1.952316325,,,
04.776,1.952316325,,,
04.778,1.898067611,,,
04.780,2.068563569,,,
04.782,2.19256063,,,
04.784,2.25455916,,,
04.786,2.31655769,,,
04.788,2.394055853,,,
04.790,2.293308241,,,
04.792,2.177060997,,,
04.794,2.130562099,,,
04.796,2.099562834,,,
04.798,2.115062467,,,
04.800,2.177060997,,,
04.802,2.394055853,,,
04.804,2.518052913,,,
04.806,2.572301627,,,
04.808,2.518052913,,,
04.810,2.463804199,,,
04.812,2.363056588,,,
04.814,2.169311181,,,
04.816,2.25455916,,,
04.818,2.339807139,,,
04.820,2.386306036,,,
04.822,2.502553281,,,
04.824,2.58780126,,,
04.826,2.804796115,,,
04.828,2.781546666,,,
04.830,2.572301627,,,
04.832,2.502553281,,,
04.834,2.479303832,,,
04.836,2.494803464,,,
04.838,2.494803464,,,
04.840,2.572301627,,,
04.842,2.727297952,,,
04.844,2.851295013,,,
04.846,2.928793176,,,
04.848,2.959792441,,,
04.850,2.897793911,,,
04.852,2.673049239,,,
04.854,2.564551811,,,
04.856,2.479303832,,,
04.858,2.533552546,,,
04.860,2.626550341,,,
04.862,2.735047769,,,
04.864,2.921043359,,,
04.866,2.975292073,,,
04.868,2.936542992,,,
04.870,2.866794645,,,
04.872,2.680799055,,,
04.874,2.425055118,,,
04.876,2.510303097,,,
04.878,2.549052178,,,
04.880,2.680799055,,,
04.882,2.750547401,,,
04.884,2.859044829,,,
04.886,2.797046299,,,
04.888,2.781546666,,,
04.890,2.727297952,,,
04.892,2.572301627,,,
04.894,2.386306036,,,
04.896,2.31655769,,,
04.898,2.417305302,,,
04.900,2.556801994,,,
04.902,2.556801994,,,
04.904,2.766047034,,,
04.906,2.71179832,,,
04.908,2.595551076,,,
04.910,2.556801994,,,
04.912,2.409555485,,,
04.914,2.277808609,,,
04.916,2.301058057,,,
04.918,2.355306771,,,
04.920,2.432804934,,,
04.922,2.626550341,,,
04.924,2.64979979,,,
04.926,2.642049973,,,
04.928,2.556801994,,,
04.930,2.533552546,,,
04.932,2.37855622,,,
04.934,2.332057323,,,
04.936,2.37855622,,,
04.938,2.386306036,,,
04.940,2.463804199,,,
04.942,2.680799055,,,
04.944,2.564551811,,,
04.946,2.634300157,,,
04.948,2.680799055,,,
04.950,2.618800525,,,
04.952,2.370806404,,,
04.954,2.339807139,,,
04.956,2.363056588,,,
04.958,2.44055475,,,
04.960,2.510303097,,,
04.962,2.64979979,,,
04.964,2.735047769,,,
04.966,2.673049239,,,
04.968,2.719548136,,,
04.970,2.642049973,,,
04.972,2.471554015,,,
04.974,2.432804934,,,
04.976,2.518052913,,,
04.978,2.549052178,,,
04.980,2.580051443,,,
04.982,2.704048504,,,
04.984,2.843545197,,,
04.986,2.812545932,,,
04.988,2.828045564,,,
04.990,2.665299422,,,
04.992,2.432804934,,,
04.994,2.417305302,,,
04.996,2.463804199,,,
04.998,2.580051443,,,
05.000,2.696298687,,,
05.002,2.812545932,,,
05.004,2.890044094,,,
05.006,2.828045564,,,
05.008,2.820295748,,,
05.010,2.634300157,,,
05.012,2.479303832,,,
05.014,2.494803464,,,
05.016,2.541302362,,,
05.018,2.603300892,,,
05.020,2.688548871,,,
05.022,3.006291338,,,
05.024,2.928793176,,,
05.026,2.859044829,,,
05.028,2.71179832,,,
05.030,2.657549606,,,
05.032,2.626550341,,,
05.034,2.680799055,,,
05.036,2.603300892,,,
05.038,2.64979979,,,
05.040,2.828045564,,,
05.042,2.921043359,,,
05.044,2.944292808,,,
05.046,2.990791706,,,
05.048,2.882294278,,,
05.050,2.758297218,,,
05.052,2.595551076,,,
05.054,2.626550341,,,
05.056,2.665299422,,,
05.058,2.64979979,,,
05.060,2.859044829,,,
05.062,2.990791706,,,
05.064,3.099289134,,,
05.066,2.990791706,,,
05.068,2.928793176,,,
05.070,2.83579538,,,
05.072,2.71179832,,,
05.074,2.673049239,,,
05.076,2.727297952,,,
05.078,2.758297218,,,
05.080,2.921043359,,,
05.082,3.021790971,,,
05.084,3.083789501,,,
05.086,2.998541522,,,
05.088,2.990791706,,,
05.090,2.897793911,,,
05.092,2.804796115,,,
05.094,2.71179832,,,
05.096,2.704048504,,,
05.098,2.921043359,,,
05.100,3.145788031,,,
05.102,3.207786561,,,
05.104,3.161287664,,,
05.106,3.099289134,,,
05.108,3.145788031,,,
05.110,2.975292073,,,
05.112,2.766047034,,,
05.114,2.789296483,,,
05.116,2.928793176,,,
05.118,2.990791706,,,
05.120,3.060540052,,,
05.122,3.091539317,,,
05.124,3.207786561,,,
05.126,3.076039685,,,
05.128,2.967542257,,,
05.130,2.851295013,,,
05.132,2.797046299,,,
05.134,2.742797585,,,
05.136,2.742797585,,,
05.138,2.866794645,,,
05.140,2.990791706,,,
05.142,3.122538582,,,
05.144,3.122538582,,,
05.146,3.052790236,,,
05.148,3.021790971,,,
05.150,2.797046299,,,
05.152,2.580051443,,,
05.154,2.704048504,,,
05.156,2.913293543,,,
05.158,3.029540787,,,
05.160,3.10703895,,,
05.162,3.138038215,,,
05.164,3.138038215,,,
05.166,3.037290603,,,
05.168,3.014041155,,,
05.170,2.820295748,,,
05.172,2.727297952,,,
05.174,2.704048504,,,
05.176,2.766047034,,,
05.178,2.975292073,,,
05.180,3.060540052,,,
05.182,3.153537848,,,
05.184,3.138038215,,,
05.186,3.10703895,,,
05.188,2.998541522,,,
05.190,2.897793911,,,
05.192,2.843545197,,,
05.194,2.882294278,,,
05.196,2.820295748,,,
05.198,3.037290603,,,
05.200,3.153537848,,,
05.202,3.192286929,,,
05.204,3.192286929,,,
05.206,3.114788766,,,
05.208,3.060540052,,,
05.210,2.913293543,,,
05.212,2.812545932,,,
05.214,2.742797585,,,
05.216,2.874544462,,,
05.218,3.083789501,,,
05.220,3.184537113,,,
05.222,3.215536378,,,
05.224,3.200036745,,,
05.226,3.076039685,,,
05.228,3.091539317,,,
05.230,2.882294278,,,
05.232,2.766047034,,,
05.234,2.781546666,,,
05.236,2.921043359,,,
05.238,3.076039685,,,
05.240,3.04504042,,,
05.242,3.184537113,,,
05.244,3.308534173,,,
05.246,3.285284724,,,
05.248,3.300784357,,,
05.250,3.254285459,,,
05.252,3.16903748,,,
05.254,3.572027926,,,
05.256,3.742523884,,,
05.258,3.928519475,,,
05.260,4.137764514,,,
05.262,4.409008084,,,
05.264,4.285011024,,,
05.266,4.0835158,,,
05.268,3.905270026,,,
05.270,3.525529029,,,
05.272,3.339533438,,,
05.274,3.362782887,,,
05.276,3.176787296,,,
05.278,3.068289869,,,
05.280,3.16903748,,,
05.282,3.083789501,,,
05.284,3.060540052,,,
05.286,2.874544462,,,
05.288,2.742797585,,,
05.290,2.727297952,,,
05.292,2.688548871,,,
05.294,2.735047769,,,
05.296,2.766047034,,,
05.298,2.967542257,,,
05.300,3.091539317,,,
05.302,3.215536378,,,
05.304,3.207786561,,,
05.306,3.138038215,,,
05.308,3.04504042,,,
05.310,2.967542257,,,
05.312,2.952042624,,,
05.314,2.975292073,,,
05.316,3.029540787,,,
05.318,3.176787296,,,
05.320,3.29303454,,,
05.322,3.401531968,,,
05.324,3.393782152,,,
05.326,3.316283989,,,
05.328,3.10703895,,,
05.330,3.10703895,,,
05.332,3.006291338,,,
05.334,3.076039685,,,
05.336,3.23103601,,,
05.338,3.29303454,,,
05.340,3.362782887,,,
05.342,3.401531968,,,
05.344,3.362782887,,,
05.346,3.316283989,,,
05.348,3.184537113,,,
05.350,3.130288399,,,
05.352,2.998541522,,,
05.354,3.091539317,,,
05.356,3.238785827,,,
05.358,3.339533438,,,
05.360,3.479030131,,,
05.362,3.44028105,,,
05.364,3.393782152,,,
05.366,3.254285459,,,
05.368,3.246535643,,,
05.370,3.130288399,,,
05.372,3.122538582,,,
05.374,3.114788766,,,
05.376,3.207786561,,,
05.378,3.393782152,,,
05.380,3.432531233,,,
05.382,3.510029396,,,
05.384,3.432531233,,,
05.386,3.448030866,,,
05.388,3.238785827,,,
05.390,3.122538582,,,
05.392,3.099289134,,,
05.394,3.091539317,,,
05.396,3.324033806,,,
05.398,3.401531968,,,
05.400,3.50227958,,,
05.402,3.50227958,,,
05.404,3.463530499,,,
05.406,3.386032336,,,
05.408,3.215536378,,,
05.410,3.176787296,,,
05.412,3.23103601,,,
05.414,3.262035275,,,
05.416,3.308534173,,,
05.418,3.517779212,,,
05.420,3.634026457,,,
05.422,3.587527559,,,
05.424,3.533278845,,,
05.426,3.455780682,,,
05.428,3.386032336,,,
05.430,3.331783622,,,
05.432,3.254285459,,,
05.434,3.29303454,,,
05.436,3.331783622,,,
05.438,3.579777743,,,
05.440,3.696024987,,,
05.442,3.703774803,,,
05.444,3.50227958,,,
05.446,3.56427811,,,
05.448,3.432531233,,,
05.450,3.370532703,,,
05.452,3.448030866,,,
05.454,3.50227958,,,
05.456,3.587527559,,,
05.458,3.734774068,,,
05.460,3.719274436,,,
05.462,3.711524619,,,
05.464,3.773523149,,,
05.466,3.734774068,,,
05.468,3.587527559,,,
05.470,3.510029396,,,
05.472,3.517779212,,,
05.474,3.595277375,,,
05.476,3.649526089,,,
05.478,3.89752021,,,
05.480,3.982768189,,,
05.482,3.936269291,,,
05.484,3.913019842,,,
05.486,3.804522415,,,
05.488,3.68827517,,,
05.490,3.525529029,,,
05.492,3.758023517,,,
05.494,3.781272966,,,
05.496,3.827771863,,,
05.498,3.990518005,,,
05.500,4.0835158,,,
05.502,4.075765984,,,
05.504,3.982768189,,,
05.506,3.905270026,,,
05.508,3.727024252,,,
05.510,3.696024987,,,
05.512,3.68827517,,,
05.514,3.680525354,,,
05.516,3.843271496,,,
05.518,3.95951874,,,
05.520,4.02151727,,,
05.522,3.951768924,,,
05.524,3.975018373,,,
05.526,3.781272966,,,
05.528,3.618526824,,,
05.530,3.62627664,,,
05.532,3.641776273,,,
05.534,3.610777008,,,
05.536,3.703774803,,,
05.538,3.827771863,,,
05.540,3.804522415,,,
05.542,3.920769659,,,
05.544,3.734774068,,,
05.546,3.649526089,,,
05.548,3.463530499,,,
05.550,3.401531968,,,
05.552,3.370532703,,,
05.554,3.44028105,,,
05.556,3.541028661,,,
05.558,3.703774803,,,
05.560,3.711524619,,,
05.562,3.641776273,,,
05.564,3.595277375,,,
05.566,3.486779947,,,
05.568,3.308534173,,,
05.570,3.401531968,,,
05.572,3.300784357,,,
05.574,3.285284724,,,
05.576,3.455780682,,,
05.578,3.68827517,,,
05.580,3.750273701,,,
05.582,3.610777008,,,
05.584,3.533278845,,,
05.586,3.424781417,,,
05.588,3.254285459,,,
05.590,3.262035275,,,
05.592,3.355033071,,,
05.594,3.277534908,,,
05.596,3.455780682,,,
05.598,3.517779212,,,
05.600,3.711524619,,,
05.602,3.657275905,,,
05.604,3.587527559,,,
05.606,3.409281785,,,
05.608,3.324033806,,,
05.610,3.262035275,,,
05.612,3.246535643,,,
05.614,3.37828252,,,
05.616,3.548778478,,,
05.618,3.672775538,,,
05.620,3.603027191,,,
05.622,3.510029396,,,
05.624,3.486779947,,,
05.626,3.393782152,,,
05.628,3.331783622,,,
05.630,3.262035275,,,
05.632,3.339533438,,,
05.634,3.393782152,,,
05.636,3.486779947,,,
05.638,3.479030131,,,
05.640,3.734774068,,,
05.642,3.618526824,,,
05.644,3.548778478,,,
05.646,3.432531233,,,
05.648,3.316283989,,,
05.650,3.285284724,,,
05.652,3.308534173,,,
05.654,3.393782152,,,
05.656,3.517779212,,,
05.658,3.579777743,,,
05.660,3.657275905,,,
05.662,3.556528294,,,
05.664,3.672775538,,,
05.666,3.401531968,,,
05.668,3.339533438,,,
05.670,3.277534908,,,
05.672,3.277534908,,,
05.674,3.401531968,,,
05.676,3.533278845,,,
05.678,3.595277375,,,
05.680,3.649526089,,,
05.682,3.533278845,,,
05.684,3.595277375,,,
05.686,3.370532703,,,
05.688,3.277534908,,,
05.690,3.246535643,,,
05.692,3.262035275,,,
05.694,3.448030866,,,
05.696,3.525529029,,,
05.698,3.703774803,,,
05.700,3.680525354,,,
05.702,3.672775538,,,
05.704,3.50227958,,,
05.706,3.331783622,,,
05.708,3.285284724,,,
05.710,3.316283989,,,
05.712,3.386032336,,,
05.714,3.448030866,,,
05.716,3.587527559,,,
05.718,3.665025722,,,
05.720,3.618526824,,,
05.722,3.618526824,,,
05.724,3.56427811,,,
05.726,3.486779947,,,
05.728,3.285284724,,,
05.730,3.370532703,,,
05.732,3.362782887,,,
05.734,3.510029396,,,
05.736,3.680525354,,,
05.738,3.742523884,,,
05.740,3.742523884,,,
05.742,3.68827517,,,
05.744,3.641776273,,,
05.746,3.455780682,,,
05.748,3.401531968,,,
05.750,3.401531968,,,
05.752,3.417031601,,,
05.754,3.50227958,,,
05.756,3.68827517,,,
05.758,3.804522415,,,
05.760,3.665025722,,,
05.762,3.665025722,,,
05.764,3.548778478,,,
05.766,3.370532703,,,
05.768,3.308534173,,,
05.770,3.215536378,,,
05.772,3.324033806,,,
05.774,3.471280315,,,
05.776,3.610777008,,,
05.778,3.680525354,,,
05.780,3.618526824,,,
05.782,3.548778478,,,
05.784,3.471280315,,,
05.786,3.362782887,,,
05.788,3.23103601,,,
05.790,3.176787296,,,
05.792,3.262035275,,,
05.794,3.37828252,,,
05.796,3.541028661,,,
05.798,3.56427811,,,
05.800,3.587527559,,,
05.802,3.56427811,,,
05.804,3.424781417,,,
05.806,3.269785092,,,
05.808,3.176787296,,,
05.810,3.246535643,,,
05.812,3.29303454,,,
05.814,3.417031601,,,
05.816,3.548778478,,,
05.818,3.618526824,,,
05.820,3.572027926,,,
05.822,3.463530499,,,
05.824,3.417031601,,,
05.826,3.23103601,,,
05.828,3.083789501,,,
05.830,3.099289134,,,
05.832,3.355033071,,,
05.834,3.471280315,,,
05.836,3.595277375,,,
05.838,3.603027191,,,
05.840,3.641776273,,,
05.842,3.44028105,,,
05.844,3.339533438,,,
05.846,3.262035275,,,
05.848,3.184537113,,,
05.850,3.254285459,,,
05.852,3.331783622,,,
05.854,3.409281785,,,
05.856,3.510029396,,,
05.858,3.587527559,,,
05.860,3.556528294,,,
05.862,3.533278845,,,
05.864,3.362782887,,,
05.866,3.215536378,,,
05.868,3.176787296,,,
05.870,3.153537848,,,
05.872,3.223286194,,,
05.874,3.362782887,,,
05.876,3.525529029,,,
05.878,3.525529029,,,
05.880,3.471280315,,,
05.882,3.463530499,,,
05.884,3.409281785,,,
05.886,3.401531968,,,
05.888,3.494529764,,,
05.890,3.649526089,,,
05.892,3.781272966,,,
05.894,3.990518005,,,
05.896,4.23076231,,,
05.898,4.517505512,,,
05.900,4.564004409,,,
05.902,4.548504777,,,
05.904,4.316010289,,,
05.906,4.044766719,,,
05.908,3.928519475,,,
05.910,3.882020577,,,
05.912,3.719274436,,,
05.914,3.758023517,,,
05.916,3.711524619,,,
05.918,3.556528294,,,
05.920,3.44028105,,,
05.922,3.29303454,,,
05.924,3.083789501,,,
05.926,2.897793911,,,
05.928,2.820295748,,,
05.930,2.98304189,,,
05.932,3.029540787,,,
05.934,3.207786561,,,
05.936,3.448030866,,,
05.938,3.362782887,,,
05.940,3.386032336,,,
05.942,3.386032336,,,
05.944,3.262035275,,,
05.946,3.184537113,,,
05.948,3.192286929,,,
05.950,3.269785092,,,
05.952,3.37828252,,,
05.954,3.463530499,,,
05.956,3.572027926,,,
05.958,3.665025722,,,
05.960,3.610777008,,,
05.962,3.479030131,,,
05.964,3.355033071,,,
05.966,3.254285459,,,
05.968,3.176787296,,,
05.970,3.355033071,,,
05.972,3.417031601,,,
05.974,3.510029396,,,
05.976,3.618526824,,,
05.978,3.56427811,,,
05.980,3.525529029,,,
05.982,3.657275905,,,
05.984,3.355033071,,,
05.986,3.300784357,,,
05.988,3.215536378,,,
05.990,3.331783622,,,
05.992,3.455780682,,,
05.994,3.618526824,,,
05.996,3.696024987,,,
05.998,3.68827517,,,
06.000,3.579777743,,,
06.002,3.541028661,,,
06.004,3.347283254,,,
06.006,3.308534173,,,
06.008,3.238785827,,,
06.010,3.308534173,,,
06.012,3.471280315,,,
06.014,3.634026457,,,
06.016,3.649526089,,,
06.018,3.672775538,,,
06.020,3.657275905,,,
06.022,3.548778478,,,
06.024,3.417031601,,,
06.026,3.300784357,,,
06.028,3.262035275,,,
06.030,3.347283254,,,
06.032,3.455780682,,,
06.034,3.649526089,,,
06.036,3.703774803,,,
06.038,3.742523884,,,
06.040,3.56427811,,,
06.042,3.548778478,,,
06.044,3.455780682,,,
06.046,3.300784357,,,
06.048,3.355033071,,,
06.050,3.37828252,,,
06.052,3.525529029,,,
06.054,3.742523884,,,
06.056,3.68827517,,,
06.058,3.750273701,,,
06.060,3.603027191,,,
06.062,3.595277375,,,
06.064,3.432531233,,,
06.066,3.308534173,,,
06.068,3.331783622,,,
06.070,3.432531233,,,
06.072,3.510029396,,,
06.074,3.657275905,,,
06.076,3.773523149,,,
06.078,3.765773333,,,
06.080,3.734774068,,,
06.082,3.62627664,,,
06.084,3.37828252,,,
06.086,3.393782152,,,
06.088,3.50227958,,,
06.090,3.618526824,,,
06.092,3.634026457,,,
06.094,3.843271496,,,
06.096,3.951768924,,,
06.098,3.882020577,,,
06.100,3.913019842,,,
06.102,3.781272966,,,
06.104,3.572027926,,,
06.106,3.641776273,,,
06.108,3.610777008,,,
06.110,3.711524619,,,
06.112,3.827771863,,,
06.114,3.990518005,,,
06.116,4.091265617,,,
06.118,4.02151727,,,
06.120,4.044766719,,,
06.122,3.827771863,,,
06.124,3.851021312,,,
06.126,3.843271496,,,
06.128,3.758023517,,,
06.130,3.827771863,,,
06.132,4.013767454,,,
06.134,4.114515066,,,
06.136,4.137764514,,,
06.138,4.184263412,,,
06.140,4.068016168,,,
06.142,3.975018373,,,
06.144,3.827771863,,,
06.146,3.789022782,,,
06.148,3.820022047,,,
06.150,3.951768924,,,
06.152,4.006017638,,,
06.154,4.122264882,,,
06.156,4.137764514,,,
06.158,4.099015433,,,
06.160,4.052516535,,,
06.162,3.905270026,,,
06.164,3.750273701,,,
06.166,3.634026457,,,
06.168,3.703774803,,,
06.170,3.804522415,,,
06.172,3.913019842,,,
06.174,3.982768189,,,
06.176,4.145514331,,,
06.178,3.920769659,,,
06.180,3.975018373,,,
06.182,3.765773333,,,
06.184,3.572027926,,,
06.186,3.525529029,,,
06.188,3.603027191,,,
06.190,3.672775538,,,
06.192,3.905270026,,,
06.194,4.013767454,,,
06.196,3.866520945,,,
06.198,3.858771128,,,
06.200,3.719274436,,,
06.202,3.548778478,,,
06.204,3.37828252,,,
06.206,3.409281785,,,
06.208,3.533278845,,,
06.210,3.517779212,,,
06.212,3.603027191,,,
06.214,3.750273701,,,
06.216,3.773523149,,,
06.218,3.727024252,,,
06.220,3.696024987,,,
06.222,3.56427811,,,
06.224,3.417031601,,,
06.226,3.355033071,,,
06.228,3.432531233,,,
06.230,3.517779212,,,
06.232,3.657275905,,,
06.234,3.672775538,,,
06.236,3.812272231,,,
06.238,3.696024987,,,
06.240,3.719274436,,,
06.242,3.525529029,,,
06.244,3.393782152,,,
06.246,3.37828252,,,
06.248,3.448030866,,,
06.250,3.463530499,,,
06.252,3.634026457,,,
06.254,3.734774068,,,
06.256,3.750273701,,,
06.258,3.657275905,,,
06.260,3.618526824,,,
06.262,3.556528294,,,
06.264,3.417031601,,,
06.266,3.324033806,,,
06.268,3.510029396,,,
06.270,3.486779947,,,
06.272,3.665025722,,,
06.274,3.851021312,,,
06.276,3.858771128,,,
06.278,3.727024252,,,
06.280,3.750273701,,,
06.282,3.587527559,,,
06.284,3.370532703,,,
06.286,3.386032336,,,
06.288,3.479030131,,,
06.290,3.50227958,,,
06.292,3.703774803,,,
06.294,3.765773333,,,
06.296,3.781272966,,,
06.298,3.703774803,,,
06.300,3.618526824,,,
06.302,3.541028661,,,
06.304,3.339533438,,,
06.306,3.409281785,,,
06.308,3.548778478,,,
06.310,3.548778478,,,
06.312,3.734774068,,,
06.314,3.734774068,,,
06.316,3.796772598,,,
06.318,3.696024987,,,
06.320,3.603027191,,,
06.322,3.525529029,,,
06.324,3.409281785,,,
06.326,3.331783622,,,
06.328,3.393782152,,,
06.330,3.548778478,,,
06.332,3.812272231,,,
06.334,3.804522415,,,
06.336,3.758023517,,,
06.338,3.750273701,,,
06.340,3.672775538,,,
06.342,3.463530499,,,
06.344,3.355033071,,,
06.346,3.479030131,,,
06.348,3.463530499,,,
06.350,3.587527559,,,
06.352,3.765773333,,,
06.354,3.95951874,,,
06.356,3.843271496,,,
06.358,3.727024252,,,
06.360,3.641776273,,,
06.362,3.494529764,,,
06.364,3.44028105,,,
06.366,3.448030866,,,
06.368,3.510029396,,,
06.370,3.595277375,,,
06.372,3.765773333,,,
06.374,3.874270761,,,
06.376,3.874270761,,,
06.378,3.812272231,,,
06.380,3.68827517,,,
06.382,3.595277375,,,
06.384,3.494529764,,,
06.386,3.455780682,,,
06.388,3.618526824,,,
06.390,3.734774068,,,
06.392,3.920769659,,,
06.394,3.89752021,,,
06.396,3.89752021,,,
06.398,3.781272966,,,
06.400,3.719274436,,,
06.402,3.541028661,,,
06.404,3.455780682,,,
06.406,3.494529764,,,
06.408,3.62627664,,,
06.410,3.680525354,,,
06.412,3.812272231,,,
06.414,3.827771863,,,
06.416,3.711524619,,,
06.418,3.641776273,,,
06.420,3.587527559,,,
06.422,3.494529764,,,
06.424,3.432531233,,,
06.426,3.417031601,,,
06.428,3.541028661,,,
06.430,3.610777008,,,
06.432,3.703774803,,,
06.434,3.874270761,,,
06.436,3.812272231,,,
06.438,3.719274436,,,
06.440,3.50227958,,,
06.442,3.370532703,,,
06.444,3.339533438,,,
06.446,3.386032336,,,
06.448,3.463530499,,,
06.450,3.595277375,,,
06.452,3.696024987,,,
06.454,3.703774803,,,
06.456,3.680525354,,,
06.458,3.634026457,,,
06.460,3.517779212,,,
06.462,3.386032336,,,
06.464,3.316283989,,,
06.466,3.37828252,,,
06.468,3.417031601,,,
06.470,3.579777743,,,
06.472,3.727024252,,,
06.474,3.804522415,,,
06.476,3.719274436,,,
06.478,3.587527559,,,
06.480,3.510029396,,,
06.482,3.355033071,,,
06.484,3.331783622,,,
06.486,3.37828252,,,
06.488,3.401531968,,,
06.490,3.548778478,,,
06.492,3.68827517,,,
06.494,3.789022782,,,
06.496,3.711524619,,,
06.498,3.56427811,,,
06.500,3.386032336,,,
06.502,3.448030866,,,
06.504,3.285284724,,,
06.506,3.401531968,,,
06.508,3.479030131,,,
06.510,3.634026457,,,
06.512,3.672775538,,,
06.514,3.680525354,,,
06.516,3.618526824,,,
06.518,3.494529764,,,
06.520,3.254285459,,,
06.522,3.285284724,,,
06.524,3.432531233,,,
06.526,3.347283254,,,
06.528,3.393782152,,,
06.530,3.579777743,,,
06.532,3.665025722,,,
06.534,3.905270026,,,
06.536,3.874270761,,,
06.538,3.858771128,,,
06.540,3.851021312,,,
06.542,3.936269291,,,
06.544,3.967268556,,,
06.546,4.238512126,,,
06.548,4.409008084,,,
06.550,4.711250919,,,
06.552,4.734500367,,,
06.554,4.618253123,,,
06.556,4.509755696,,,
06.558,4.347009554,,,
06.560,4.029267087,,,
06.562,3.711524619,,,
06.564,3.603027191,,,
06.566,3.572027926,,,
06.568,3.463530499,,,
06.570,3.494529764,,,
06.572,3.533278845,,,
06.574,3.409281785,,,
06.576,3.308534173,,,
06.578,3.215536378,,,
06.580,3.200036745,,,
06.582,2.990791706,,,
06.584,3.076039685,,,
06.586,3.207786561,,,
06.588,3.362782887,,,
06.590,3.556528294,,,
06.592,3.634026457,,,
06.594,3.68827517,,,
06.596,3.649526089,,,
06.598,3.541028661,,,
06.600,3.362782887,,,
06.602,3.262035275,,,
06.604,3.331783622,,,
06.606,3.417031601,,,
06.608,3.463530499,,,
06.610,3.696024987,,,
06.612,3.672775538,,,
06.614,3.765773333,,,
06.616,3.734774068,,,
06.618,3.533278845,,,
06.620,3.393782152,,,
06.622,3.355033071,,,
06.624,3.370532703,,,
06.626,3.44028105,,,
06.628,3.579777743,,,
06.630,3.680525354,,,
06.632,3.727024252,,,
06.634,3.657275905,,,
06.636,3.62627664,,,
06.638,3.572027926,,,
06.640,3.432531233,,,
06.642,3.277534908,,,
06.644,3.393782152,,,
06.646,3.44028105,,,
06.648,3.494529764,,,
06.650,3.781272966,,,
06.652,3.773523149,,,
06.654,3.742523884,,,
06.656,3.634026457,,,
06.658,3.618526824,,,
06.660,3.44028105,,,
06.662,3.417031601,,,
06.664,3.37828252,,,
06.666,3.463530499,,,
06.668,3.572027926,,,
06.670,3.789022782,,,
06.672,3.680525354,,,
06.674,3.773523149,,,
06.676,3.711524619,,,
06.678,3.556528294,,,
06.680,3.533278845,,,
06.682,3.331783622,,,
06.684,3.347283254,,,
06.686,3.486779947,,,
06.688,3.595277375,,,
06.690,3.804522415,,,
06.692,3.742523884,,,
06.694,3.649526089,,,
06.696,3.634026457,,,
06.698,3.610777008,,,
06.700,3.471280315,,,
06.702,3.409281785,,,
06.704,3.386032336,,,
06.706,3.479030131,,,
06.708,3.62627664,,,
06.710,3.719274436,,,
06.712,3.703774803,,,
06.714,3.734774068,,,
06.716,3.680525354,,,
06.718,3.525529029,,,
06.720,3.362782887,,,
06.722,3.339533438,,,
06.724,3.572027926,,,
06.726,3.56427811,,,
06.728,3.680525354,,,
06.730,3.843271496,,,
06.732,3.951768924,,,
06.734,3.83552168,,,
06.736,3.765773333,,,
06.738,3.665025722,,,
06.740,3.587527559,,,
06.742,3.533278845,,,
06.744,3.56427811,,,
06.746,3.641776273,,,
06.748,3.796772598,,,
06.750,3.936269291,,,
06.752,3.975018373,,,
06.754,3.967268556,,,
06.756,3.874270761,,,
06.758,3.781272966,,,
06.760,3.62627664,,,
06.762,3.680525354,,,
06.764,3.696024987,,,
06.766,3.83552168,,,
06.768,4.013767454,,,
06.770,4.106765249,,,
06.772,4.130014698,,,
06.774,4.044766719,,,
06.776,3.967268556,,,
06.778,3.827771863,,,
06.780,3.781272966,,,
06.782,3.727024252,,,
06.784,3.851021312,,,
06.786,3.944019108,,,
06.788,4.052516535,,,
06.790,4.145514331,,,
06.792,4.184263412,,,
06.794,4.0835158,,,
06.796,4.0835158,,,
06.798,3.951768924,,,
06.800,3.773523149,,,
06.802,3.765773333,,,
06.804,3.820022047,,,
06.806,3.851021312,,,
06.808,4.006017638,,,
06.810,4.114515066,,,
06.812,4.130014698,,,
06.814,4.060266352,,,
06.816,3.95951874,,,
06.818,3.758023517,,,
06.820,3.62627664,,,
06.822,3.572027926,,,
06.824,3.672775538,,,
06.826,3.750273701,,,
06.828,3.905270026,,,
06.830,3.944019108,,,
06.832,3.920769659,,,
06.834,3.858771128,,,
06.836,3.758023517,,,
06.838,3.541028661,,,
06.840,3.486779947,,,
06.842,3.455780682,,,
06.844,3.486779947,,,
06.846,3.618526824,,,
06.848,3.703774803,,,
06.850,3.750273701,,,
06.852,3.758023517,,,
06.854,3.62627664,,,
06.856,3.556528294,,,
06.858,3.448030866,,,
06.860,3.300784357,,,
06.862,3.401531968,,,
06.864,3.409281785,,,
06.866,3.455780682,,,
06.868,3.634026457,,,
06.870,3.758023517,,,
06.872,3.672775538,,,
06.874,3.595277375,,,
06.876,3.432531233,,,
06.878,3.448030866,,,
06.880,3.277534908,,,
06.882,3.370532703,,,
06.884,3.409281785,,,
06.886,3.463530499,,,
06.888,3.649526089,,,
06.890,3.703774803,,,
06.892,3.703774803,,,
06.894,3.572027926,,,
06.896,3.541028661,,,
06.898,3.300784357,,,
06.900,3.29303454,,,
06.902,3.262035275,,,
06.904,3.479030131,,,
06.906,3.517779212,,,
06.908,3.587527559,,,
06.910,3.796772598,,,
06.912,3.634026457,,,
06.914,3.595277375,,,
06.916,3.610777008,,,
06.918,3.393782152,,,
06.920,3.300784357,,,
06.922,3.339533438,,,
06.924,3.285284724,,,
06.926,3.463530499,,,
06.928,3.657275905,,,
06.930,3.703774803,,,
06.932,3.587527559,,,
06.934,3.603027191,,,
06.936,3.579777743,,,
06.938,3.401531968,,,
06.940,3.308534173,,,
06.942,3.37828252,,,
06.944,3.409281785,,,
06.946,3.525529029,,,
06.948,3.672775538,,,
06.950,3.719274436,,,
06.952,3.657275905,,,
06.954,3.572027926,,,
06.956,3.517779212,,,
06.958,3.386032336,,,
06.960,3.223286194,,,
06.962,3.362782887,,,
06.964,3.432531233,,,
06.966,3.401531968,,,
06.968,3.572027926,,,
06.970,3.742523884,,,
06.972,3.665025722,,,
06.974,3.579777743,,,
06.976,3.510029396,,,
06.978,3.324033806,,,
06.980,3.200036745,,,
06.982,3.386032336,,,
06.984,3.386032336,,,
06.986,3.525529029,,,
06.988,3.62627664,,,
06.990,3.750273701,,,
06.992,3.672775538,,,
06.994,3.595277375,,,
06.996,3.409281785,,,
06.998,3.331783622,,,
07.000,3.161287664,,,
07.002,3.285284724,,,
07.004,3.37828252,,,
07.006,3.533278845,,,
07.008,3.618526824,,,
07.010,3.634026457,,,
07.012,3.603027191,,,
07.014,3.610777008,,,
07.016,3.455780682,,,
07.018,3.362782887,,,
07.020,3.269785092,,,
07.022,3.331783622,,,
07.024,3.424781417,,,
07.026,3.56427811,,,
07.028,3.641776273,,,
07.030,3.820022047,,,
07.032,3.556528294,,,
07.034,3.603027191,,,
07.036,3.424781417,,,
07.038,3.324033806,,,
07.040,3.23103601,,,
07.042,3.331783622,,,
07.044,3.324033806,,,
07.046,3.525529029,,,
07.048,3.657275905,,,
07.050,3.719274436,,,
07.052,3.665025722,,,
07.054,3.62627664,,,
07.056,3.401531968,,,
07.058,3.300784357,,,
07.060,3.316283989,,,
07.062,3.463530499,,,
07.064,3.409281785,,,
07.066,3.548778478,,,
07.068,3.773523149,,,
07.070,3.89752021,,,
07.072,3.804522415,,,
07.074,3.634026457,,,
07.076,3.50227958,,,
07.078,3.324033806,,,
07.080,3.362782887,,,
07.082,3.44028105,,,
07.084,3.479030131,,,
07.086,3.618526824,,,
07.088,3.649526089,,,
07.090,3.680525354,,,
07.092,3.62627664,,,
07.094,3.541028661,,,
07.096,3.556528294,,,
07.098,3.362782887,,,
07.100,3.316283989,,,
07.102,3.347283254,,,
07.104,3.401531968,,,
07.106,3.471280315,,,
07.108,3.610777008,,,
07.110,3.789022782,,,
07.112,3.634026457,,,
07.114,3.533278845,,,
07.116,3.316283989,,,
07.118,3.223286194,,,
07.120,3.254285459,,,
07.122,3.401531968,,,
07.124,3.386032336,,,
07.126,3.533278845,,,
07.128,3.641776273,,,
07.130,3.657275905,,,
07.132,3.603027191,,,
07.134,3.525529029,,,
07.136,3.44028105,,,
07.138,3.192286929,,,
07.140,3.207786561,,,
07.142,3.29303454,,,
07.144,3.401531968,,,
07.146,3.548778478,,,
07.148,3.618526824,,,
07.150,3.68827517,,,
07.152,3.603027191,,,
07.154,3.486779947,,,
07.156,3.29303454,,,
07.158,3.192286929,,,
07.160,3.238785827,,,
07.162,3.339533438,,,
07.164,3.386032336,,,
07.166,3.525529029,,,
07.168,3.610777008,,,
07.170,3.672775538,,,
07.172,3.579777743,,,
07.174,3.50227958,,,
07.176,3.324033806,,,
07.178,3.176787296,,,
07.180,3.122538582,,,
07.182,3.324033806,,,
07.184,3.424781417,,,
07.186,3.657275905,,,
07.188,3.696024987,,,
07.190,3.595277375,,,
07.192,3.463530499,,,
07.194,3.486779947,,,
07.196,3.262035275,,,
07.198,3.145788031,,,
07.200,3.200036745,,,
07.202,3.207786561,,,
07.204,3.393782152,,,
07.206,3.533278845,,,
07.208,3.587527559,,,
07.210,3.665025722,,,
07.212,3.657275905,,,
07.214,3.773523149,,,
07.216,3.62627664,,,
07.218,3.727024252,,,
07.220,3.812272231,,,
07.222,4.029267087,,,
07.224,4.269511391,,,
07.226,4.579504042,,,
07.228,4.75,,,
07.230,4.618253123,,,
07.232,4.463256798,,,
07.234,4.137764514,,,
07.236,3.89752021,,,
07.238,3.750273701,,,
07.240,3.579777743,,,
07.242,3.517779212,,,
07.244,3.463530499,,,
07.246,3.525529029,,,
07.248,3.432531233,,,
07.250,3.355033071,,,
07.252,3.262035275,,,
07.254,3.099289134,,,
07.256,2.952042624,,,
07.258,2.936542992,,,
07.260,3.021790971,,,
07.262,3.060540052,,,
07.264,3.23103601,,,
07.266,3.479030131,,,
07.268,3.533278845,,,
07.270,3.50227958,,,
07.272,3.455780682,,,
07.274,3.393782152,,,
07.276,3.29303454,,,
07.278,3.223286194,,,
07.280,3.246535643,,,
07.282,3.37828252,,,
07.284,3.463530499,,,
07.286,3.587527559,,,
07.288,3.711524619,,,
07.290,3.603027191,,,
07.292,3.471280315,,,
07.294,3.401531968,,,
07.296,3.29303454,,,
07.298,3.308534173,,,
07.300,3.262035275,,,
07.302,3.29303454,,,
07.304,3.448030866,,,
07.306,3.533278845,,,
07.308,3.696024987,,,
07.310,3.56427811,,,
07.312,3.471280315,,,
07.314,3.417031601,,,
07.316,3.246535643,,,
07.318,3.308534173,,,
07.320,3.339533438,,,
07.322,3.393782152,,,
07.324,3.510029396,,,
07.326,3.595277375,,,
07.328,3.62627664,,,
07.330,3.665025722,,,
07.332,3.603027191,,,
07.334,3.331783622,,,
07.336,3.138038215,,,
07.338,3.29303454,,,
07.340,3.370532703,,,
07.342,3.370532703,,,
07.344,3.56427811,,,
07.346,3.657275905,,,
07.348,3.680525354,,,
07.350,3.587527559,,,
07.352,3.494529764,,,
07.354,3.347283254,,,
07.356,3.316283989,,,
07.358,3.29303454,,,
07.360,3.370532703,,,
07.362,3.417031601,,,
07.364,3.525529029,,,
07.366,3.603027191,,,
07.368,3.680525354,,,
07.370,3.595277375,,,
07.372,3.533278845,,,
07.374,3.424781417,,,
07.376,3.324033806,,,
07.378,3.308534173,,,
07.380,3.370532703,,,
07.382,3.386032336,,,
07.384,3.541028661,,,
07.386,3.719274436,,,
07.388,3.734774068,,,
07.390,3.610777008,,,
07.392,3.525529029,,,
07.394,3.44028105,,,
07.396,3.29303454,,,
07.398,3.277534908,,,
07.400,3.432531233,,,
07.402,3.479030131,,,
07.404,3.649526089,,,
07.406,3.711524619,,,
07.408,3.703774803,,,
07.410,3.641776273,,,
07.412,3.62627664,,,
07.414,3.50227958,,,
07.416,3.44028105,,,
07.418,3.401531968,,,
07.420,3.463530499,,,
07.422,3.432531233,,,
07.424,3.641776273,,,
07.426,3.874270761,,,
07.428,3.827771863,,,
07.430,3.804522415,,,
07.432,3.719274436,,,
07.434,3.587527559,,,
07.436,3.510029396,,,
07.438,3.471280315,,,
07.440,3.533278845,,,
07.442,3.68827517,,,
07.444,3.889770394,,,
07.446,3.905270026,,,
07.448,4.0835158,,,
07.450,3.820022047,,,
07.452,3.789022782,,,
07.454,3.641776273,,,
07.456,3.541028661,,,
07.458,3.533278845,,,
07.460,3.618526824,,,
07.462,3.781272966,,,
07.464,3.982768189,,,
07.466,3.975018373,,,
07.468,3.990518005,,,
07.470,3.905270026,,,
07.472,3.827771863,,,
07.474,3.680525354,,,
07.476,3.587527559,,,
07.478,3.62627664,,,
07.480,3.703774803,,,
07.482,3.750273701,,,
07.484,3.928519475,,,
07.486,3.990518005,,,
07.488,3.967268556,,,
07.490,3.789022782,,,
07.492,3.804522415,,,
07.494,3.471280315,,,
07.496,3.424781417,,,
07.498,3.50227958,,,
07.500,3.56427811,,,
07.502,3.618526824,,,
07.504,3.703774803,,,
07.506,3.734774068,,,
07.508,3.696024987,,,
07.510,3.672775538,,,
07.512,3.486779947,,,
07.514,3.23103601,,,
07.516,3.285284724,,,
07.518,3.331783622,,,
07.520,3.331783622,,,
07.522,3.455780682,,,
07.524,3.595277375,,,
07.526,3.579777743,,,
07.528,3.548778478,,,
07.530,3.455780682,,,
07.532,3.409281785,,,
07.534,3.223286194,,,
07.536,3.099289134,,,
07.538,3.083789501,,,
07.540,3.215536378,,,
07.542,3.37828252,,,
07.544,3.455780682,,,
07.546,3.510029396,,,
07.548,3.486779947,,,
07.550,3.386032336,,,
07.552,3.262035275,,,
07.554,3.099289134,,,
07.556,3.029540787,,,
07.558,3.130288399,,,
07.560,3.246535643,,,
07.562,3.347283254,,,
07.564,3.455780682,,,
07.566,3.525529029,,,
07.568,3.401531968,,,
07.570,3.316283989,,,
07.572,3.16903748,,,
07.574,3.037290603,,,
07.576,3.021790971,,,
07.578,3.122538582,,,
07.580,3.192286929,,,
07.582,3.262035275,,,
07.584,3.393782152,,,
07.586,3.471280315,,,
07.588,3.424781417,,,
07.590,3.285284724,,,
07.592,3.145788031,,,
07.594,2.975292073,,,
07.596,3.021790971,,,
07.598,3.04504042,,,
07.600,3.215536378,,,
07.602,3.324033806,,,
07.604,3.347283254,,,
07.606,3.409281785,,,
07.608,3.455780682,,,
07.610,3.401531968,,,
07.612,3.200036745,,,
07.614,3.122538582,,,
07.616,3.029540787,,,
07.618,3.006291338,,,
07.620,3.060540052,,,
07.622,3.285284724,,,
07.624,3.393782152,,,
07.626,3.401531968,,,
07.628,3.339533438,,,
07.630,3.285284724,,,
07.632,3.099289134,,,
07.634,3.014041155,,,
07.636,3.083789501,,,
07.638,3.068289869,,,
07.640,3.114788766,,,
07.642,3.277534908,,,
07.644,3.29303454,,,
07.646,3.37828252,,,
07.648,3.339533438,,,
07.650,3.254285459,,,
07.652,3.10703895,,,
07.654,2.975292073,,,
07.656,2.959792441,,,
07.658,3.029540787,,,
07.660,3.10703895,,,
07.662,3.269785092,,,
07.664,3.262035275,,,
07.666,3.339533438,,,
07.668,3.300784357,,,
07.670,3.16903748,,,
07.672,3.068289869,,,
07.674,2.897793911,,,
07.676,2.83579538,,,
07.678,3.060540052,,,
07.680,2.998541522,,,
07.682,3.192286929,,,
07.684,3.355033071,,,
07.686,3.300784357,,,
07.688,3.269785092,,,
07.690,3.161287664,,,
07.692,2.990791706,,,
07.694,2.944292808,,,
07.696,2.890044094,,,
07.698,3.006291338,,,
07.700,3.068289869,,,
07.702,3.192286929,,,
07.704,3.246535643,,,
07.706,3.184537113,,,
07.708,3.207786561,,,
07.710,3.23103601,,,
07.712,2.959792441,,,
07.714,2.828045564,,,
07.716,2.913293543,,,
07.718,2.921043359,,,
07.720,3.052790236,,,
07.722,3.254285459,,,
07.724,3.254285459,,,
07.726,3.285284724,,,
07.728,3.207786561,,,
07.730,3.037290603,,,
07.732,2.882294278,,,
07.734,2.804796115,,,
07.736,2.820295748,,,
07.738,2.905543727,,,
07.740,3.006291338,,,
07.742,3.114788766,,,
07.744,3.207786561,,,
07.746,3.184537113,,,
07.748,3.161287664,,,
07.750,3.014041155,,,