Time (s),Signal (V),Peak Time (s) ,Sample #,Type
00.000,2.098206471,00.488,244,N
00.002,1.8371068,00.744,372,t
00.004,1.559688401,01.336,668,N
00.006,1.731035059,01.578,789,t
00.008,1.8371068,02.132,1066,N
00.010,1.845266165,02.384,1192,t
00.012,2.032931553,02.954,1477,N
00.014,2.008453459,03.198,1599,t
00.016,2.261393765,03.808,1904,N
00.018,2.187959483,04.032,2016,t
00.020,2.065569012,04.594,2297,N
00.022,1.845266165,04.828,2414,t
00.024,1.535210306,05.426,2713,N
00.026,1.755513153,05.678,2839,t
00.028,1.804469342,06.212,3106,N
00.030,1.959497271,06.460,3230,t
00.032,2.057409647,07.044,3522,N
00.034,2.073728377,07.280,3640,t
00.036,2.26955313,07.820,3910,N
00.038,2.220596942,08.066,4033,t
00.040,2.073728377,,,
00.042,1.8371068,,,
00.044,1.543369671,,,
00.046,1.8371068,,,
00.048,1.869744259,,,
00.050,2.008453459,,,
00.052,2.041090918,,,
00.054,2.098206471,,,
00.056,2.342987412,,,
00.058,2.277712495,,,
00.060,2.090047106,,,
00.062,1.763672518,,,
00.064,1.510732212,,,
00.066,1.755513153,,,
00.068,1.869744259,,,
00.070,1.8371068,,,
00.072,2.139003295,,,
00.074,2.090047106,,,
00.076,2.342987412,,,
00.078,2.277712495,,,
00.080,2.000294095,,,
00.082,1.706556965,,,
00.084,1.584166495,,,
00.086,1.869744259,,,
00.088,1.796309977,,,
00.090,1.918700448,,,
00.092,2.024772189,,,
00.094,2.081887742,,,
00.096,2.326668683,,,
00.098,2.187959483,,,
00.100,2.073728377,,,
00.102,1.665760142,,,
00.104,1.494413483,,,
00.106,1.85342553,,,
00.108,1.85342553,,,
00.110,1.894222353,,,
00.112,2.016612824,,,
00.114,2.073728377,,,
00.116,2.351146777,,,
00.118,2.220596942,,,
00.120,2.032931553,,,
00.122,1.71471633,,,
00.124,1.57600713,,,
00.126,1.845266165,,,
00.128,1.869744259,,,
00.130,1.894222353,,,
00.132,2.016612824,,,
00.134,2.024772189,,,
00.136,2.196118847,,,
00.138,2.220596942,,,
00.140,2.081887742,,,
00.142,1.739194424,,,
00.144,1.690238236,,,
00.146,1.731035059,,,
00.148,1.788150612,,,
00.150,1.886062989,,,
00.152,1.99213473,,,
00.154,2.147162659,,,
00.156,2.359306142,,,
00.158,2.13084393,,,
00.160,1.959497271,,,
00.162,1.608644589,,,
00.164,1.673919506,,,
00.166,1.722875695,,,
00.168,1.861584895,,,
00.170,2.016612824,,,
00.172,2.024772189,,,
00.174,2.073728377,,,
00.176,2.285871859,,,
00.178,2.179800118,,,
00.180,2.049250283,,,
00.182,1.551529036,,,
00.184,1.673919506,,,
00.186,1.690238236,,,
00.188,1.828947436,,,
00.190,1.886062989,,,
00.192,2.032931553,,,
00.194,2.098206471,,,
00.196,2.359306142,,,
00.198,2.171640753,,,
00.200,2.016612824,,,
00.202,1.608644589,,,
00.204,1.747353789,,,
00.206,1.869744259,,,
00.208,1.877903624,,,
00.210,1.910541083,,,
00.212,2.049250283,,,
00.214,2.196118847,,,
00.216,2.294031224,,,
00.218,2.081887742,,,
00.220,1.861584895,,,
00.222,1.551529036,,,
00.224,1.861584895,,,
00.226,1.894222353,,,
00.228,1.828947436,,,
00.230,2.106365836,,,
00.232,2.081887742,,,
00.234,2.204278212,,,
00.236,2.245075036,,,
00.238,2.163481389,,,
00.240,2.016612824,,,
00.242,1.616803953,,,
00.244,1.796309977,,,
00.246,1.894222353,,,
00.248,1.967656636,,,
00.250,2.098206471,,,
00.252,2.049250283,,,
00.254,2.318509318,,,
00.256,2.367465506,,,
00.258,2.155322024,,,
00.260,1.886062989,,,
00.262,1.600485224,,,
00.264,1.828947436,,,
00.266,1.828947436,,,
00.268,1.845266165,,,
00.270,2.032931553,,,
00.272,2.163481389,,,
00.274,2.310349953,,,
00.276,2.2532344,,,
00.278,2.122684565,,,
00.280,1.894222353,,,
00.282,1.527050942,,,
00.284,1.845266165,,,
00.286,1.926859812,,,
00.288,1.983975365,,,
00.290,2.098206471,,,
00.292,2.122684565,,,
00.294,2.367465506,,,
00.296,2.318509318,,,
00.298,2.13084393,,,
00.300,1.877903624,,,
00.302,1.559688401,,,
00.304,1.845266165,,,
00.306,1.845266165,,,
00.308,2.032931553,,,
00.310,2.090047106,,,
00.312,2.236915671,,,
00.314,2.465377883,,,
00.316,2.351146777,,,
00.318,2.106365836,,,
00.320,1.935019177,,,
00.322,1.722875695,,,
00.324,2.032931553,,,
00.326,2.008453459,,,
00.328,2.032931553,,,
00.330,2.147162659,,,
00.332,2.236915671,,,
00.334,2.416421694,,,
00.336,2.359306142,,,
00.338,2.179800118,,,
00.340,1.894222353,,,
00.342,1.641282048,,,
00.344,1.983975365,,,
00.346,2.13084393,,,
00.348,2.106365836,,,
00.350,2.155322024,,,
00.352,2.302190589,,,
00.354,2.604087083,,,
00.356,2.465377883,,,
00.358,2.220596942,,,
00.360,1.99213473,,,
00.362,1.763672518,,,
00.364,2.081887742,,,
00.366,2.073728377,,,
00.368,2.147162659,,,
00.370,2.351146777,,,
00.372,2.310349953,,,
00.374,2.538812165,,,
00.376,2.400102965,,,
00.378,2.228756306,,,
00.380,1.951337906,,,
00.382,1.722875695,,,
00.384,2.057409647,,,
00.386,2.065569012,,,
00.388,2.081887742,,,
00.390,2.187959483,,,
00.392,2.26955313,,,
00.394,2.595927718,,,
00.396,2.367465506,,,
00.398,2.171640753,,,
00.400,1.804469342,,,
00.402,1.763672518,,,
00.404,1.918700448,,,
00.406,1.828947436,,,
00.408,2.049250283,,,
00.410,2.196118847,,,
00.412,2.139003295,,,
00.414,2.40826233,,,
00.416,2.220596942,,,
00.418,2.081887742,,,
00.420,1.788150612,,,
00.422,1.763672518,,,
00.424,1.85342553,,,
00.426,1.8371068,,,
00.428,1.869744259,,,
00.430,2.098206471,,,
00.432,2.13084393,,,
00.434,2.318509318,,,
00.436,2.26955313,,,
00.438,2.13084393,,,
00.440,1.71471633,,,
00.442,1.739194424,,,
00.444,1.828947436,,,
00.446,1.951337906,,,
00.448,2.016612824,,,
00.450,2.073728377,,,
00.452,2.1145252,,,
00.454,2.351146777,,,
00.456,2.073728377,,,
00.458,1.877903624,,,
00.460,1.502572848,,,
00.462,1.592325859,,,
00.464,1.690238236,,,
00.466,1.71471633,,,
00.468,1.722875695,,,
00.470,1.926859812,,,
00.472,2.106365836,,,
00.474,2.302190589,,,
00.476,2.236915671,,,
00.478,2.285871859,,,
00.480,2.122684565,,,
00.482,2.473537247,,,
00.484,2.881505483,,,
00.486,3.109967694,,,
00.488,3.452661012,,,
00.490,3.697441953,,,
00.492,3.893266706,,,
00.494,4.040135271,,,
00.496,3.770876235,,,
00.498,3.615848306,,,
00.500,3.093648965,,,
00.502,3.069170871,,,
00.504,2.914142941,,,
00.506,2.734636918,,,
00.508,2.644883906,,,
00.510,2.587768353,,,
00.512,2.481696612,,,
00.514,2.432740424,,,
00.516,2.179800118,,,
00.518,1.926859812,,,
00.520,1.551529036,,,
00.522,1.682078871,,,
00.524,1.682078871,,,
00.526,1.665760142,,,
00.528,1.779991248,,,
00.530,1.877903624,,,
00.532,2.065569012,,,
00.534,2.155322024,,,
00.536,1.983975365,,,
00.538,1.747353789,,,
00.540,1.469935389,,,
00.542,1.739194424,,,
00.544,1.845266165,,,
00.546,1.943178542,,,
00.548,2.000294095,,,
00.550,2.057409647,,,
00.552,2.228756306,,,
00.554,2.277712495,,,
00.556,2.1145252,,,
00.558,1.861584895,,,
00.560,1.535210306,,,
00.562,1.828947436,,,
00.564,1.845266165,,,
00.566,1.812628706,,,
00.568,2.081887742,,,
00.570,2.147162659,,,
00.572,2.171640753,,,
00.574,2.285871859,,,
00.576,2.049250283,,,
00.578,1.820788071,,,
00.580,1.535210306,,,
00.582,1.796309977,,,
00.584,1.910541083,,,
00.586,1.894222353,,,
00.588,2.008453459,,,
00.590,2.090047106,,,
00.592,2.326668683,,,
00.594,2.26955313,,,
00.596,2.090047106,,,
00.598,1.861584895,,,
00.600,1.57600713,,,
00.602,1.85342553,,,
00.604,1.910541083,,,
00.606,1.967656636,,,
00.608,2.147162659,,,
00.610,2.098206471,,,
00.612,2.26955313,,,
00.614,2.2532344,,,
00.616,2.155322024,,,
00.618,1.845266165,,,
00.620,1.673919506,,,
00.622,1.918700448,,,
00.624,1.910541083,,,
00.626,1.975816,,,
00.628,2.139003295,,,
00.630,2.212437577,,,
00.632,2.465377883,,,
00.634,2.326668683,,,
00.636,2.139003295,,,
00.638,1.886062989,,,
00.640,1.649441412,,,
00.642,1.975816,,,
00.644,1.894222353,,,
00.646,2.008453459,,,
00.648,2.163481389,,,
00.650,2.302190589,,,
00.652,2.449059153,,,
00.654,2.342987412,,,
00.656,2.220596942,,,
00.658,1.959497271,,,
00.660,1.665760142,,,
00.662,1.910541083,,,
00.664,2.008453459,,,
00.666,2.1145252,,,
00.668,2.261393765,,,
00.670,2.285871859,,,
00.672,2.498015342,,,
00.674,2.424581059,,,
00.676,2.228756306,,,
00.678,1.975816,,,
00.680,1.820788071,,,
00.682,2.041090918,,,
00.684,2.13084393,,,
00.686,2.228756306,,,
00.688,2.294031224,,,
00.690,2.351146777,,,
00.692,2.571449624,,,
00.694,2.563290259,,,
00.696,2.351146777,,,
00.698,2.000294095,,,
00.700,1.967656636,,,
00.702,2.245075036,,,
00.704,2.179800118,,,
00.706,2.277712495,,,
00.708,2.424581059,,,
00.710,2.3919436,,,
00.712,2.759115012,,,
00.714,2.587768353,,,
00.716,2.465377883,,,
00.718,2.090047106,,,
00.720,2.057409647,,,
00.722,2.236915671,,,
00.724,2.351146777,,,
00.726,2.383784236,,,
00.728,2.449059153,,,
00.730,2.555130894,,,
00.732,2.840708659,,,
00.734,2.636724542,,,
00.736,2.465377883,,,
00.738,2.187959483,,,
00.740,2.236915671,,,
00.742,2.375624871,,,
00.744,2.383784236,,,
00.746,2.440899789,,,
00.748,2.54697153,,,
00.750,2.579608989,,,
00.752,2.775433741,,,
00.754,2.604087083,,,
00.756,2.465377883,,,
00.758,2.057409647,,,
00.760,2.13084393,,,
00.762,2.302190589,,,
00.764,2.245075036,,,
00.766,2.228756306,,,
00.768,2.375624871,,,
00.770,2.498015342,,,
00.772,2.620405812,,,
00.774,2.400102965,,,
00.776,2.310349953,,,
00.778,1.959497271,,,
00.780,1.967656636,,,
00.782,2.016612824,,,
00.784,2.000294095,,,
00.786,2.204278212,,,
00.788,2.26955313,,,
00.790,2.383784236,,,
00.792,2.514334071,,,
00.794,2.318509318,,,
00.796,2.196118847,,,
00.798,1.788150612,,,
00.800,1.902381718,,,
00.802,1.951337906,,,
00.804,2.000294095,,,
00.806,2.163481389,,,
00.808,2.220596942,,,
00.810,2.261393765,,,
00.812,2.383784236,,,
00.814,2.26955313,,,
00.816,2.098206471,,,
00.818,1.657600777,,,
00.820,1.877903624,,,
00.822,1.983975365,,,
00.824,1.935019177,,,
00.826,2.057409647,,,
00.828,2.13084393,,,
00.830,2.261393765,,,
00.832,2.375624871,,,
00.834,2.090047106,,,
00.836,2.155322024,,,
00.838,1.788150612,,,
00.840,1.894222353,,,
00.842,1.926859812,,,
00.844,2.008453459,,,
00.846,2.098206471,,,
00.848,2.139003295,,,
00.850,2.40826233,,,
00.852,2.375624871,,,
00.854,2.179800118,,,
00.856,1.926859812,,,
00.858,1.624963318,,,
00.860,1.796309977,,,
00.862,1.918700448,,,
00.864,1.910541083,,,
00.866,2.106365836,,,
00.868,2.147162659,,,
00.870,2.383784236,,,
00.872,2.424581059,,,
00.874,2.204278212,,,
00.876,1.935019177,,,
00.878,1.624963318,,,
00.880,1.926859812,,,
00.882,1.983975365,,,
00.884,2.024772189,,,
00.886,2.179800118,,,
00.888,2.212437577,,,
00.890,2.424581059,,,
00.892,2.367465506,,,
00.894,2.179800118,,,
00.896,1.886062989,,,
00.898,1.6983976,,,
00.900,1.902381718,,,
00.902,2.032931553,,,
00.904,2.065569012,,,
00.906,2.179800118,,,
00.908,2.245075036,,,
00.910,2.400102965,,,
00.912,2.40826233,,,
00.914,2.171640753,,,
00.916,1.812628706,,,
00.918,1.788150612,,,
00.920,2.065569012,,,
00.922,1.983975365,,,
00.924,2.081887742,,,
00.926,2.187959483,,,
00.928,2.2532344,,,
00.930,2.383784236,,,
00.932,2.318509318,,,
00.934,2.073728377,,,
00.936,1.951337906,,,
00.938,1.779991248,,,
00.940,1.967656636,,,
00.942,1.959497271,,,
00.944,2.147162659,,,
00.946,2.212437577,,,
00.948,2.13084393,,,
00.950,2.3919436,,,
00.952,2.294031224,,,
00.954,2.155322024,,,
00.956,1.861584895,,,
00.958,1.649441412,,,
00.960,1.918700448,,,
00.962,1.99213473,,,
00.964,2.098206471,,,
00.966,2.163481389,,,
00.968,2.163481389,,,
00.970,2.465377883,,,
00.972,2.334828047,,,
00.974,2.1145252,,,
00.976,1.902381718,,,
00.978,1.71471633,,,
00.980,1.983975365,,,
00.982,2.000294095,,,
00.984,2.1145252,,,
00.986,2.147162659,,,
00.988,2.155322024,,,
00.990,2.3919436,,,
00.992,2.285871859,,,
00.994,2.090047106,,,
00.996,1.804469342,,,
00.998,1.739194424,,,
01.000,1.85342553,,,
01.002,1.894222353,,,
01.004,2.000294095,,,
01.006,2.098206471,,,
01.008,2.098206471,,,
01.010,2.318509318,,,
01.012,2.245075036,,,
01.014,2.098206471,,,
01.016,1.779991248,,,
01.018,1.755513153,,,
01.020,1.967656636,,,
01.022,1.861584895,,,
01.024,1.967656636,,,
01.026,2.106365836,,,
01.028,2.090047106,,,
01.030,2.342987412,,,
01.032,2.196118847,,,
01.034,1.99213473,,,
01.036,1.722875695,,,
01.038,1.763672518,,,
01.040,1.869744259,,,
01.042,1.877903624,,,
01.044,1.967656636,,,
01.046,2.041090918,,,
01.048,2.122684565,,,
01.050,2.563290259,,,
01.052,2.277712495,,,
01.054,2.073728377,,,
01.056,1.755513153,,,
01.058,1.869744259,,,
01.060,1.861584895,,,
01.062,1.820788071,,,
01.064,1.804469342,,,
01.066,2.147162659,,,
01.068,2.171640753,,,
01.070,2.277712495,,,
01.072,2.261393765,,,
01.074,2.1145252,,,
01.076,1.755513153,,,
01.078,1.845266165,,,
01.080,1.845266165,,,
01.082,1.99213473,,,
01.084,2.057409647,,,
01.086,2.122684565,,,
01.088,2.236915671,,,
01.090,2.440899789,,,
01.092,2.228756306,,,
01.094,2.057409647,,,
01.096,1.633122683,,,
01.098,1.804469342,,,
01.100,1.910541083,,,
01.102,1.983975365,,,
01.104,2.073728377,,,
01.106,2.187959483,,,
01.108,2.342987412,,,
01.110,2.3919436,,,
01.112,2.179800118,,,
01.114,2.016612824,,,
01.116,1.600485224,,,
01.118,1.877903624,,,
01.120,1.910541083,,,
01.122,1.918700448,,,
01.124,2.106365836,,,
01.126,2.122684565,,,
01.128,2.310349953,,,
01.130,2.342987412,,,
01.132,2.090047106,,,
01.134,1.943178542,,,
01.136,1.616803953,,,
01.138,1.886062989,,,
01.140,1.951337906,,,
01.142,1.935019177,,,
01.144,2.13084393,,,
01.146,2.155322024,,,
01.148,2.342987412,,,
01.150,2.351146777,,,
01.152,2.139003295,,,
01.154,2.032931553,,,
01.156,1.682078871,,,
01.158,1.877903624,,,
01.160,2.016612824,,,
01.162,2.065569012,,,
01.164,2.196118847,,,
01.166,2.212437577,,,
01.168,2.375624871,,,
01.170,2.334828047,,,
01.172,2.187959483,,,
01.174,1.983975365,,,
01.176,1.722875695,,,
01.178,2.016612824,,,
01.180,1.99213473,,,
01.182,2.147162659,,,
01.184,2.228756306,,,
01.186,2.261393765,,,
01.188,2.40826233,,,
01.190,2.3919436,,,
01.192,2.212437577,,,
01.194,1.967656636,,,
01.196,1.771831883,,,
01.198,2.065569012,,,
01.200,2.245075036,,,
01.202,2.212437577,,,
01.204,2.285871859,,,
01.206,2.310349953,,,
01.208,2.571449624,,,
01.210,2.514334071,,,
01.212,2.424581059,,,
01.214,2.106365836,,,
01.216,1.788150612,,,
01.218,2.041090918,,,
01.220,2.13084393,,,
01.222,2.261393765,,,
01.224,2.351146777,,,
01.226,2.375624871,,,
01.228,2.54697153,,,
01.230,2.489855977,,,
01.232,2.294031224,,,
01.234,2.000294095,,,
01.236,1.763672518,,,
01.238,2.041090918,,,
01.240,2.016612824,,,
01.242,2.073728377,,,
01.244,2.228756306,,,
01.246,2.261393765,,,
01.248,2.514334071,,,
01.250,2.440899789,,,
01.252,2.261393765,,,
01.254,1.902381718,,,
01.256,1.673919506,,,
01.258,1.902381718,,,
01.260,1.959497271,,,
01.262,2.041090918,,,
01.264,2.106365836,,,
01.266,2.147162659,,,
01.268,2.334828047,,,
01.270,2.285871859,,,
01.272,2.122684565,,,
01.274,1.812628706,,,
01.276,1.616803953,,,
01.278,1.877903624,,,
01.280,1.869744259,,,
01.282,2.049250283,,,
01.284,2.1145252,,,
01.286,2.139003295,,,
01.288,2.342987412,,,
01.290,2.285871859,,,
01.292,2.171640753,,,
01.294,1.861584895,,,
01.296,1.690238236,,,
01.298,1.894222353,,,
01.300,1.959497271,,,
01.302,2.024772189,,,
01.304,2.032931553,,,
01.306,2.016612824,,,
01.308,2.294031224,,,
01.310,2.139003295,,,
01.312,1.877903624,,,
01.314,1.478094753,,,
01.316,1.43729793,,,
01.318,1.755513153,,,
01.320,1.8371068,,,
01.322,2.000294095,,,
01.324,2.220596942,,,
01.326,2.40826233,,,
01.328,2.914142941,,,
01.330,2.987577224,,,
01.332,2.938621036,,,
01.334,2.914142941,,,
01.336,3.069170871,,,
01.338,3.354748636,,,
01.340,3.493457835,,,
01.342,3.468979741,,,
01.344,3.730079412,,,
01.346,3.65664513,,,
01.348,3.754557506,,,
01.350,3.362908,,,
01.352,3.0854896,,,
01.354,2.538812165,,,
01.356,2.342987412,,,
01.358,2.261393765,,,
01.360,2.057409647,,,
01.362,1.951337906,,,
01.364,2.171640753,,,
01.366,2.245075036,,,
01.368,2.26955313,,,
01.370,2.1145252,,,
01.372,1.910541083,,,
01.374,1.608644589,,,
01.376,1.567847765,,,
01.378,1.665760142,,,
01.380,1.657600777,,,
01.382,1.845266165,,,
01.384,1.951337906,,,
01.386,2.065569012,,,
01.388,2.220596942,,,
01.390,2.098206471,,,
01.392,2.081887742,,,
01.394,1.722875695,,,
01.396,1.85342553,,,
01.398,1.902381718,,,
01.400,1.983975365,,,
01.402,2.098206471,,,
01.404,2.155322024,,,
01.406,2.220596942,,,
01.408,2.400102965,,,
01.410,2.163481389,,,
01.412,2.106365836,,,
01.414,1.755513153,,,
01.416,1.943178542,,,
01.418,2.049250283,,,
01.420,2.057409647,,,
01.422,2.000294095,,,
01.424,2.228756306,,,
01.426,2.367465506,,,
01.428,2.383784236,,,
01.430,2.245075036,,,
01.432,2.098206471,,,
01.434,1.771831883,,,
01.436,2.000294095,,,
01.438,2.065569012,,,
01.440,2.106365836,,,
01.442,2.171640753,,,
01.444,2.294031224,,,
01.446,2.465377883,,,
01.448,2.40826233,,,
01.450,2.245075036,,,
01.452,2.106365836,,,
01.454,1.706556965,,,
01.456,1.99213473,,,
01.458,2.106365836,,,
01.460,2.147162659,,,
01.462,2.261393765,,,
01.464,2.342987412,,,
01.466,2.563290259,,,
01.468,2.489855977,,,
01.470,2.285871859,,,
01.472,2.179800118,,,
01.474,1.959497271,,,
01.476,2.147162659,,,
01.478,2.090047106,,,
01.480,2.139003295,,,
01.482,2.424581059,,,
01.484,2.473537247,,,
01.486,2.669362,,,
01.488,2.579608989,,,
01.490,2.326668683,,,
01.492,2.139003295,,,
01.494,1.861584895,,,
01.496,2.147162659,,,
01.498,2.2532344,,,
01.500,2.2532344,,,
01.502,2.342987412,,,
01.504,2.473537247,,,
01.506,2.718318189,,,
01.508,2.661202636,,,
01.510,2.440899789,,,
01.512,2.187959483,,,
01.514,1.926859812,,,
01.516,2.204278212,,,
01.518,2.318509318,,,
01.520,2.424581059,,,
01.522,2.498015342,,,
01.524,2.465377883,,,
01.526,2.726477553,,,
01.528,2.750955647,,,
01.530,2.644883906,,,
01.532,2.367465506,,,
01.534,2.073728377,,,
01.536,2.26955313,,,
01.538,2.367465506,,,
01.540,2.481696612,,,
01.542,2.522493436,,,
01.544,2.68568073,,,
01.546,2.914142941,,,
01.548,2.865186753,,,
01.550,2.628565177,,,
01.552,2.367465506,,,
01.554,2.318509318,,,
01.556,2.416421694,,,
01.558,2.473537247,,,
01.560,2.5306528,,,
01.562,2.701999459,,,
01.564,2.791752471,,,
01.566,2.995736589,,,
01.568,2.865186753,,,
01.570,2.68568073,,,
01.572,2.481696612,,,
01.574,2.285871859,,,
01.576,2.514334071,,,
01.578,2.514334071,,,
01.580,2.669362,,,
01.582,2.775433741,,,
01.584,2.759115012,,,
01.586,3.012055318,,,
01.588,2.930461671,,,
01.590,2.726477553,,,
01.592,2.424581059,,,
01.594,2.359306142,,,
01.596,2.54697153,,,
01.598,2.473537247,,,
01.600,2.579608989,,,
01.602,2.710158824,,,
01.604,2.710158824,,,
01.606,2.9467804,,,
01.608,2.775433741,,,
01.610,2.653043271,,,
01.612,2.245075036,,,
01.614,2.204278212,,,
01.616,2.351146777,,,
01.618,2.359306142,,,
01.620,2.383784236,,,
01.622,2.506174706,,,
01.624,2.538812165,,,
01.626,2.759115012,,,
01.628,2.612246447,,,
01.630,2.424581059,,,
01.632,2.032931553,,,
01.634,2.081887742,,,
01.636,2.204278212,,,
01.638,2.187959483,,,
01.640,2.245075036,,,
01.642,2.334828047,,,
01.644,2.3919436,,,
01.646,2.506174706,,,
01.648,2.432740424,,,
01.650,2.334828047,,,
01.652,2.008453459,,,
01.654,1.935019177,,,
01.656,1.967656636,,,
01.658,2.049250283,,,
01.660,2.106365836,,,
01.662,2.351146777,,,
01.664,2.342987412,,,
01.666,2.506174706,,,
01.668,2.351146777,,,
01.670,2.187959483,,,
01.672,1.869744259,,,
01.674,1.926859812,,,
01.676,1.975816,,,
01.678,2.032931553,,,
01.680,2.098206471,,,
01.682,2.334828047,,,
01.684,2.318509318,,,
01.686,2.457218518,,,
01.688,2.2532344,,,
01.690,2.179800118,,,
01.692,1.722875695,,,
01.694,1.894222353,,,
01.696,2.032931553,,,
01.698,2.041090918,,,
01.700,2.220596942,,,
01.702,2.285871859,,,
01.704,2.473537247,,,
01.706,2.54697153,,,
01.708,2.294031224,,,
01.710,2.155322024,,,
01.712,1.779991248,,,
01.714,1.983975365,,,
01.716,1.959497271,,,
01.718,2.024772189,,,
01.720,2.139003295,,,
01.722,2.310349953,,,
01.724,2.498015342,,,
01.726,2.457218518,,,
01.728,2.2532344,,,
01.730,2.090047106,,,
01.732,1.747353789,,,
01.734,1.894222353,,,
01.736,2.008453459,,,
01.738,2.032931553,,,
01.740,2.220596942,,,
01.742,2.228756306,,,
01.744,2.375624871,,,
01.746,2.400102965,,,
01.748,2.261393765,,,
01.750,2.008453459,,,
01.752,1.673919506,,,
01.754,1.975816,,,
01.756,2.098206471,,,
01.758,1.975816,,,
01.760,2.13084393,,,
01.762,2.220596942,,,
01.764,2.416421694,,,
01.766,2.3919436,,,
01.768,2.212437577,,,
01.770,2.057409647,,,
01.772,1.673919506,,,
01.774,1.935019177,,,
01.776,2.041090918,,,
01.778,2.081887742,,,
01.780,2.13084393,,,
01.782,2.163481389,,,
01.784,2.40826233,,,
01.786,2.334828047,,,
01.788,2.220596942,,,
01.790,1.959497271,,,
01.792,1.608644589,,,
01.794,1.951337906,,,
01.796,1.951337906,,,
01.798,1.918700448,,,
01.800,2.081887742,,,
01.802,2.171640753,,,
01.804,2.465377883,,,
01.806,2.3919436,,,
01.808,2.187959483,,,
01.810,1.877903624,,,
01.812,1.616803953,,,
01.814,1.845266165,,,
01.816,1.926859812,,,
01.818,2.090047106,,,
01.820,2.204278212,,,
01.822,2.139003295,,,
01.824,2.342987412,,,
01.826,2.318509318,,,
01.828,2.147162659,,,
01.830,1.877903624,,,
01.832,1.657600777,,,
01.834,1.918700448,,,
01.836,2.000294095,,,
01.838,1.975816,,,
01.840,2.187959483,,,
01.842,2.228756306,,,
01.844,2.400102965,,,
01.846,2.432740424,,,
01.848,2.090047106,,,
01.850,1.85342553,,,
01.852,1.739194424,,,
01.854,1.975816,,,
01.856,1.935019177,,,
01.858,2.024772189,,,
01.860,2.155322024,,,
01.862,2.179800118,,,
01.864,2.465377883,,,
01.866,2.351146777,,,
01.868,2.179800118,,,
01.870,1.779991248,,,
01.872,1.641282048,,,
01.874,1.951337906,,,
01.876,2.057409647,,,
01.878,2.057409647,,,
01.880,2.171640753,,,
01.882,2.204278212,,,
01.884,2.440899789,,,
01.886,2.400102965,,,
01.888,2.228756306,,,
01.890,1.845266165,,,
01.892,1.763672518,,,
01.894,1.926859812,,,
01.896,2.024772189,,,
01.898,2.081887742,,,
01.900,2.212437577,,,
01.902,2.245075036,,,
01.904,2.506174706,,,
01.906,2.375624871,,,
01.908,2.13084393,,,
01.910,1.763672518,,,
01.912,1.845266165,,,
01.914,2.024772189,,,
01.916,1.983975365,,,
01.918,2.090047106,,,
01.920,2.171640753,,,
01.922,2.2532344,,,
01.924,2.506174706,,,
01.926,2.310349953,,,
01.928,2.171640753,,,
01.930,1.796309977,,,
01.932,1.861584895,,,
01.934,2.041090918,,,
01.936,1.967656636,,,
01.938,2.13084393,,,
01.940,2.302190589,,,
01.942,2.294031224,,,
01.944,2.5306528,,,
01.946,2.294031224,,,
01.948,2.171640753,,,
01.950,1.918700448,,,
01.952,1.926859812,,,
01.954,2.041090918,,,
01.956,2.081887742,,,
01.958,2.1145252,,,
01.960,2.342987412,,,
01.962,2.3919436,,,
01.964,2.514334071,,,
01.966,2.367465506,,,
01.968,2.326668683,,,
01.970,1.902381718,,,
01.972,1.894222353,,,
01.974,2.065569012,,,
01.976,2.155322024,,,
01.978,2.220596942,,,
01.980,2.359306142,,,
01.982,2.457218518,,,
01.984,2.68568073,,,
01.986,2.457218518,,,
01.988,2.3919436,,,
01.990,1.975816,,,
01.992,2.073728377,,,
01.994,2.196118847,,,
01.996,2.204278212,,,
01.998,2.285871859,,,
02.000,2.40826233,,,
02.002,2.587768353,,,
02.004,2.604087083,,,
02.006,2.375624871,,,
02.008,2.26955313,,,
02.010,1.861584895,,,
02.012,2.065569012,,,
02.014,2.163481389,,,
02.016,2.171640753,,,
02.018,2.302190589,,,
02.020,2.359306142,,,
02.022,2.473537247,,,
02.024,2.579608989,,,
02.026,2.424581059,,,
02.028,2.204278212,,,
02.030,1.894222353,,,
02.032,2.049250283,,,
02.034,2.081887742,,,
02.036,2.147162659,,,
02.038,2.26955313,,,
02.040,2.196118847,,,
02.042,2.424581059,,,
02.044,2.440899789,,,
02.046,2.245075036,,,
02.048,2.065569012,,,
02.050,1.771831883,,,
02.052,1.910541083,,,
02.054,1.99213473,,,
02.056,2.147162659,,,
02.058,2.302190589,,,
02.060,2.310349953,,,
02.062,2.457218518,,,
02.064,2.334828047,,,
02.066,2.171640753,,,
02.068,2.008453459,,,
02.070,1.747353789,,,
02.072,1.886062989,,,
02.074,1.967656636,,,
02.076,1.99213473,,,
02.078,2.228756306,,,
02.080,2.261393765,,,
02.082,2.473537247,,,
02.084,2.424581059,,,
02.086,2.236915671,,,
02.088,2.000294095,,,
02.090,1.771831883,,,
02.092,1.99213473,,,
02.094,1.967656636,,,
02.096,1.967656636,,,
02.098,2.163481389,,,
02.100,2.122684565,,,
02.102,2.367465506,,,
02.104,2.285871859,,,
02.106,2.024772189,,,
02.108,1.747353789,,,
02.110,1.404660471,,,
02.112,1.755513153,,,
02.114,1.877903624,,,
02.116,1.943178542,,,
02.118,2.212437577,,,
02.120,2.432740424,,,
02.122,2.832549294,,,
02.124,3.012055318,,,
02.126,3.10180833,,,
02.128,3.052852141,,,
02.130,2.995736589,,,
02.132,3.509776565,,,
02.134,3.632167035,,,
02.136,3.697441953,,,
02.138,3.697441953,,,
02.140,3.65664513,,,
02.142,3.852469882,,,
02.144,3.65664513,,,
02.146,3.232358165,,,
02.148,2.775433741,,,
02.150,2.359306142,,,
02.152,2.3919436,,,
02.154,2.277712495,,,
02.156,2.155322024,,,
02.158,2.245075036,,,
02.160,2.261393765,,,
02.162,2.416421694,,,
02.164,2.26955313,,,
02.166,2.073728377,,,
02.168,1.804469342,,,
02.170,1.559688401,,,
02.172,1.779991248,,,
02.174,1.804469342,,,
02.176,1.967656636,,,
02.178,2.139003295,,,
02.180,2.139003295,,,
02.182,2.326668683,,,
02.184,2.236915671,,,
02.186,2.098206471,,,
02.188,1.828947436,,,
02.190,1.739194424,,,
02.192,1.943178542,,,
02.194,2.000294095,,,
02.196,2.065569012,,,
02.198,2.2532344,,,
02.200,2.204278212,,,
02.202,2.563290259,,,
02.204,2.3919436,,,
02.206,2.13084393,,,
02.208,1.886062989,,,
02.210,1.788150612,,,
02.212,2.049250283,,,
02.214,2.147162659,,,
02.216,2.1145252,,,
02.218,2.2532344,,,
02.220,2.294031224,,,
02.222,2.351146777,,,
02.224,2.3919436,,,
02.226,2.26955313,,,
02.228,1.926859812,,,
02.230,1.951337906,,,
02.232,2.081887742,,,
02.234,2.106365836,,,
02.236,2.171640753,,,
02.238,2.294031224,,,
02.240,2.342987412,,,
02.242,2.644883906,,,
02.244,2.424581059,,,
02.246,2.310349953,,,
02.248,2.041090918,,,
02.250,2.041090918,,,
02.252,2.171640753,,,
02.254,2.220596942,,,
02.256,2.310349953,,,
02.258,2.457218518,,,
02.260,2.506174706,,,
02.262,2.693840094,,,
02.264,2.5306528,,,
02.266,2.40826233,,,
02.268,2.041090918,,,
02.270,2.171640753,,,
02.272,2.261393765,,,
02.274,2.310349953,,,
02.276,2.416421694,,,
02.278,2.481696612,,,
02.280,2.465377883,,,
02.282,2.750955647,,,
02.284,2.522493436,,,
02.286,2.440899789,,,
02.288,2.13084393,,,
02.290,2.228756306,,,
02.292,2.318509318,,,
02.294,2.285871859,,,
02.296,2.465377883,,,
02.298,2.555130894,,,
02.300,2.693840094,,,
02.302,2.791752471,,,
02.304,2.628565177,,,
02.306,2.620405812,,,
02.308,2.179800118,,,
02.310,2.367465506,,,
02.312,2.416421694,,,
02.314,2.473537247,,,
02.316,2.555130894,,,
02.318,2.653043271,,,
02.320,2.775433741,,,
02.322,2.905983577,,,
02.324,2.742796283,,,
02.326,2.54697153,,,
02.328,2.285871859,,,
02.330,2.449059153,,,
02.332,2.54697153,,,
02.334,2.612246447,,,
02.336,2.8080712,,,
02.338,2.750955647,,,
02.340,2.873346118,,,
02.342,2.979417859,,,
02.344,2.799911836,,,
02.346,2.604087083,,,
02.348,2.367465506,,,
02.350,2.514334071,,,
02.352,2.653043271,,,
02.354,2.710158824,,,
02.356,2.791752471,,,
02.358,2.881505483,,,
02.360,3.093648965,,,
02.362,3.118127059,,,
02.364,3.003895953,,,
02.366,2.734636918,,,
02.368,2.432740424,,,
02.370,2.595927718,,,
02.372,2.693840094,,,
02.374,2.710158824,,,
02.376,2.881505483,,,
02.378,3.003895953,,,
02.380,3.248676894,,,
02.382,3.183401977,,,
02.384,3.012055318,,,
02.386,2.750955647,,,
02.388,2.465377883,,,
02.390,2.68568073,,,
02.392,2.759115012,,,
02.394,2.799911836,,,
02.396,2.865186753,,,
02.398,2.897824212,,,
02.400,3.150764518,,,
02.402,3.0854896,,,
02.404,2.865186753,,,
02.406,2.563290259,,,
02.408,2.277712495,,,
02.410,2.644883906,,,
02.412,2.661202636,,,
02.414,2.701999459,,,
02.416,2.791752471,,,
02.418,2.742796283,,,
02.420,3.012055318,,,
02.422,2.881505483,,,
02.424,2.669362,,,
02.426,2.432740424,,,
02.428,2.2532344,,,
02.430,2.481696612,,,
02.432,2.54697153,,,
02.434,2.498015342,,,
02.436,2.514334071,,,
02.438,2.636724542,,,
02.440,2.9467804,,,
02.442,2.848868024,,,
02.444,2.628565177,,,
02.446,2.351146777,,,
02.448,2.13084393,,,
02.450,2.473537247,,,
02.452,2.440899789,,,
02.454,2.506174706,,,
02.456,2.620405812,,,
02.458,2.669362,,,
02.460,2.938621036,,,
02.462,2.775433741,,,
02.464,2.563290259,,,
02.466,2.220596942,,,
02.468,2.155322024,,,
02.470,2.449059153,,,
02.472,2.3919436,,,
02.474,2.555130894,,,
02.476,2.628565177,,,
02.478,2.661202636,,,
02.480,2.930461671,,,
02.482,2.82438993,,,
02.484,2.636724542,,,
02.486,2.245075036,,,
02.488,2.236915671,,,
02.490,2.481696612,,,
02.492,2.465377883,,,
02.494,2.595927718,,,
02.496,2.718318189,,,
02.498,2.644883906,,,
02.500,2.9467804,,,
02.502,2.775433741,,,
02.504,2.677521365,,,
02.506,2.2532344,,,
02.508,2.2532344,,,
02.510,2.449059153,,,
02.512,2.40826233,,,
02.514,2.465377883,,,
02.516,2.669362,,,
02.518,2.669362,,,
02.520,2.889664847,,,
02.522,2.669362,,,
02.524,2.587768353,,,
02.526,2.302190589,,,
02.528,2.302190589,,,
02.530,2.457218518,,,
02.532,2.473537247,,,
02.534,2.538812165,,,
02.536,2.653043271,,,
02.538,2.636724542,,,
02.540,2.865186753,,,
02.542,2.636724542,,,
02.544,2.473537247,,,
02.546,2.204278212,,,
02.548,2.2532344,,,
02.550,2.285871859,,,
02.552,2.342987412,,,
02.554,2.400102965,,,
02.556,2.587768353,,,
02.558,2.579608989,,,
02.560,2.775433741,,,
02.562,2.579608989,,,
02.564,2.449059153,,,
02.566,2.016612824,,,
02.568,2.122684565,,,
02.570,2.26955313,,,
02.572,2.277712495,,,
02.574,2.367465506,,,
02.576,2.440899789,,,
02.578,2.481696612,,,
02.580,2.628565177,,,
02.582,2.489855977,,,
02.584,2.351146777,,,
02.586,1.983975365,,,
02.588,2.041090918,,,
02.590,2.163481389,,,
02.592,2.26955313,,,
02.594,2.302190589,,,
02.596,2.465377883,,,
02.598,2.473537247,,,
02.600,2.579608989,,,
02.602,2.465377883,,,
02.604,2.302190589,,,
02.606,1.983975365,,,
02.608,2.163481389,,,
02.610,2.196118847,,,
02.612,2.179800118,,,
02.614,2.334828047,,,
02.616,2.457218518,,,
02.618,2.595927718,,,
02.620,2.538812165,,,
02.622,2.432740424,,,
02.624,2.285871859,,,
02.626,1.886062989,,,
02.628,2.098206471,,,
02.630,2.196118847,,,
02.632,2.212437577,,,
02.634,2.367465506,,,
02.636,2.457218518,,,
02.638,2.701999459,,,
02.640,2.5306528,,,
02.642,2.424581059,,,
02.644,2.245075036,,,
02.646,1.8371068,,,
02.648,2.106365836,,,
02.650,2.171640753,,,
02.652,2.245075036,,,
02.654,2.3919436,,,
02.656,2.310349953,,,
02.658,2.5306528,,,
02.660,2.636724542,,,
02.662,2.40826233,,,
02.664,2.139003295,,,
02.666,1.8371068,,,
02.668,2.098206471,,,
02.670,2.155322024,,,
02.672,2.2532344,,,
02.674,2.342987412,,,
02.676,2.351146777,,,
02.678,2.604087083,,,
02.680,2.653043271,,,
02.682,2.326668683,,,
02.684,2.1145252,,,
02.686,1.8371068,,,
02.688,2.1145252,,,
02.690,2.179800118,,,
02.692,2.212437577,,,
02.694,2.342987412,,,
02.696,2.383784236,,,
02.698,2.620405812,,,
02.700,2.628565177,,,
02.702,2.351146777,,,
02.704,2.065569012,,,
02.706,1.861584895,,,
02.708,2.122684565,,,
02.710,2.220596942,,,
02.712,2.196118847,,,
02.714,2.318509318,,,
02.716,2.383784236,,,
02.718,2.636724542,,,
02.720,2.555130894,,,
02.722,2.3919436,,,
02.724,2.065569012,,,
02.726,1.828947436,,,
02.728,2.073728377,,,
02.730,2.1145252,,,
02.732,2.212437577,,,
02.734,2.310349953,,,
02.736,2.245075036,,,
02.738,2.595927718,,,
02.740,2.498015342,,,
02.742,2.359306142,,,
02.744,2.081887742,,,
02.746,1.763672518,,,
02.748,2.098206471,,,
02.750,2.057409647,,,
02.752,2.204278212,,,
02.754,2.367465506,,,
02.756,2.334828047,,,
02.758,2.612246447,,,
02.760,2.522493436,,,
02.762,2.334828047,,,
02.764,2.122684565,,,
02.766,1.967656636,,,
02.768,2.139003295,,,
02.770,2.016612824,,,
02.772,2.13084393,,,
02.774,2.302190589,,,
02.776,2.326668683,,,
02.778,2.498015342,,,
02.780,2.506174706,,,
02.782,2.40826233,,,
02.784,1.926859812,,,
02.786,1.796309977,,,
02.788,2.171640753,,,
02.790,2.155322024,,,
02.792,2.179800118,,,
02.794,2.375624871,,,
02.796,2.318509318,,,
02.798,2.636724542,,,
02.800,2.5306528,,,
02.802,2.359306142,,,
02.804,2.041090918,,,
02.806,2.008453459,,,
02.808,2.179800118,,,
02.810,2.228756306,,,
02.812,2.302190589,,,
02.814,2.440899789,,,
02.816,2.432740424,,,
02.818,2.726477553,,,
02.820,2.620405812,,,
02.822,2.424581059,,,
02.824,2.1145252,,,
02.826,2.155322024,,,
02.828,2.310349953,,,
02.830,2.261393765,,,
02.832,2.326668683,,,
02.834,2.416421694,,,
02.836,2.3919436,,,
02.838,2.68568073,,,
02.840,2.498015342,,,
02.842,2.432740424,,,
02.844,2.049250283,,,
02.846,2.122684565,,,
02.848,2.228756306,,,
02.850,2.228756306,,,
02.852,2.26955313,,,
02.854,2.375624871,,,
02.856,2.440899789,,,
02.858,2.587768353,,,
02.860,2.294031224,,,
02.862,2.212437577,,,
02.864,1.8371068,,,
02.866,1.943178542,,,
02.868,2.13084393,,,
02.870,2.049250283,,,
02.872,2.057409647,,,
02.874,2.26955313,,,
02.876,2.351146777,,,
02.878,2.514334071,,,
02.880,2.261393765,,,
02.882,2.187959483,,,
02.884,1.755513153,,,
02.886,1.975816,,,
02.888,2.032931553,,,
02.890,2.057409647,,,
02.892,2.171640753,,,
02.894,2.310349953,,,
02.896,2.424581059,,,
02.898,2.489855977,,,
02.900,2.261393765,,,
02.902,2.090047106,,,
02.904,1.812628706,,,
02.906,2.081887742,,,
02.908,2.024772189,,,
02.910,2.032931553,,,
02.912,2.220596942,,,
02.914,2.277712495,,,
02.916,2.334828047,,,
02.918,2.359306142,,,
02.920,2.155322024,,,
02.922,2.024772189,,,
02.924,1.706556965,,,
02.926,1.861584895,,,
02.928,1.983975365,,,
02.930,1.951337906,,,
02.932,2.098206471,,,
02.934,2.13084393,,,
02.936,2.334828047,,,
02.938,2.514334071,,,
02.940,2.506174706,,,
02.942,2.3919436,,,
02.944,2.375624871,,,
02.946,2.767274377,,,
02.948,3.10180833,,,
02.950,3.403704824,,,
02.952,3.697441953,,,
02.954,3.860629247,,,
02.956,4.07277273,,,
02.958,3.991179082,,,
02.960,3.811673059,,,
02.962,3.460820377,,,
02.964,3.003895953,,,
02.966,3.191561341,,,
02.968,2.987577224,,,
02.970,2.816230565,,,
02.972,2.791752471,,,
02.974,2.653043271,,,
02.976,2.644883906,,,
02.978,2.555130894,,,
02.980,2.204278212,,,
02.982,2.008453459,,,
02.984,1.763672518,,,
02.986,1.8371068,,,
02.988,1.935019177,,,
02.990,1.943178542,,,
02.992,2.081887742,,,
02.994,2.147162659,,,
02.996,2.383784236,,,
02.998,2.367465506,,,
03.000,2.187959483,,,
03.002,1.943178542,,,
03.004,1.616803953,,,
03.006,2.073728377,,,
03.008,2.024772189,,,
03.010,2.1145252,,,
03.012,2.277712495,,,
03.014,2.326668683,,,
03.016,2.571449624,,,
03.018,2.498015342,,,
03.020,2.334828047,,,
03.022,2.016612824,,,
03.024,1.771831883,,,
03.026,2.13084393,,,
03.028,2.155322024,,,
03.030,2.1145252,,,
03.032,2.236915671,,,
03.034,2.228756306,,,
03.036,2.481696612,,,
03.038,2.514334071,,,
03.040,2.261393765,,,
03.042,2.024772189,,,
03.044,1.812628706,,,
03.046,2.049250283,,,
03.048,1.967656636,,,
03.050,2.245075036,,,
03.052,2.342987412,,,
03.054,2.383784236,,,
03.056,2.620405812,,,
03.058,2.465377883,,,
03.060,2.326668683,,,
03.062,2.073728377,,,
03.064,1.943178542,,,
03.066,2.139003295,,,
03.068,2.098206471,,,
03.070,2.212437577,,,
03.072,2.383784236,,,
03.074,2.400102965,,,
03.076,2.628565177,,,
03.078,2.481696612,,,
03.080,2.334828047,,,
03.082,2.049250283,,,
03.084,1.902381718,,,
03.086,2.122684565,,,
03.088,2.122684565,,,
03.090,2.220596942,,,
03.092,2.367465506,,,
03.094,2.359306142,,,
03.096,2.653043271,,,
03.098,2.440899789,,,
03.100,2.294031224,,,
03.102,2.032931553,,,
03.104,1.99213473,,,
03.106,2.155322024,,,
03.108,2.171640753,,,
03.110,2.342987412,,,
03.112,2.449059153,,,
03.114,2.432740424,,,
03.116,2.677521365,,,
03.118,2.481696612,,,
03.120,2.310349953,,,
03.122,2.081887742,,,
03.124,2.147162659,,,
03.126,2.147162659,,,
03.128,2.122684565,,,
03.130,2.236915671,,,
03.132,2.40826233,,,
03.134,2.538812165,,,
03.136,2.750955647,,,
03.138,2.506174706,,,
03.140,2.40826233,,,
03.142,2.057409647,,,
03.144,2.163481389,,,
03.146,2.261393765,,,
03.148,2.310349953,,,
03.150,2.310349953,,,
03.152,2.604087083,,,
03.154,2.636724542,,,
03.156,2.767274377,,,
03.158,2.612246447,,,
03.160,2.514334071,,,
03.162,2.122684565,,,
03.164,2.228756306,,,
03.166,2.400102965,,,
03.168,2.481696612,,,
03.170,2.449059153,,,
03.172,2.726477553,,,
03.174,2.718318189,,,
03.176,2.865186753,,,
03.178,2.604087083,,,
03.180,2.54697153,,,
03.182,2.212437577,,,
03.184,2.367465506,,,
03.186,2.424581059,,,
03.188,2.5306528,,,
03.190,2.604087083,,,
03.192,2.693840094,,,
03.194,2.873346118,,,
03.196,2.9467804,,,
03.198,2.759115012,,,
03.200,2.628565177,,,
03.202,2.236915671,,,
03.204,2.424581059,,,
03.206,2.538812165,,,
03.208,2.571449624,,,
03.210,2.734636918,,,
03.212,2.767274377,,,
03.214,2.897824212,,,
03.216,2.881505483,,,
03.218,2.701999459,,,
03.220,2.522493436,,,
03.222,2.155322024,,,
03.224,2.318509318,,,
03.226,2.400102965,,,
03.228,2.400102965,,,
03.230,2.604087083,,,
03.232,2.595927718,,,
03.234,2.693840094,,,
03.236,2.718318189,,,
03.238,2.506174706,,,
03.240,2.367465506,,,
03.242,2.024772189,,,
03.244,2.106365836,,,
03.246,2.236915671,,,
03.248,2.220596942,,,
03.250,2.334828047,,,
03.252,2.522493436,,,
03.254,2.579608989,,,
03.256,2.563290259,,,
03.258,2.457218518,,,
03.260,2.212437577,,,
03.262,1.910541083,,,
03.264,2.098206471,,,
03.266,2.122684565,,,
03.268,2.171640753,,,
03.270,2.334828047,,,
03.272,2.383784236,,,
03.274,2.718318189,,,
03.276,2.498015342,,,
03.278,2.351146777,,,
03.280,2.13084393,,,
03.282,1.861584895,,,
03.284,2.147162659,,,
03.286,2.196118847,,,
03.288,2.245075036,,,
03.290,2.375624871,,,
03.292,2.351146777,,,
03.294,2.604087083,,,
03.296,2.604087083,,,
03.298,2.375624871,,,
03.300,2.13084393,,,
03.302,1.877903624,,,
03.304,2.196118847,,,
03.306,2.147162659,,,
03.308,2.245075036,,,
03.310,2.310349953,,,
03.312,2.473537247,,,
03.314,2.710158824,,,
03.316,2.661202636,,,
03.318,2.367465506,,,
03.320,2.057409647,,,
03.322,1.8371068,,,
03.324,2.049250283,,,
03.326,2.171640753,,,
03.328,2.2532344,,,
03.330,2.2532344,,,
03.332,2.302190589,,,
03.334,2.522493436,,,
03.336,2.481696612,,,
03.338,2.326668683,,,
03.340,2.081887742,,,
03.342,1.877903624,,,
03.344,2.147162659,,,
03.346,2.1145252,,,
03.348,2.163481389,,,
03.350,2.277712495,,,
03.352,2.326668683,,,
03.354,2.604087083,,,
03.356,2.5306528,,,
03.358,2.351146777,,,
03.360,2.049250283,,,
03.362,1.918700448,,,
03.364,2.122684565,,,
03.366,2.13084393,,,
03.368,2.26955313,,,
03.370,2.359306142,,,
03.372,2.424581059,,,
03.374,2.669362,,,
03.376,2.481696612,,,
03.378,2.342987412,,,
03.380,2.016612824,,,
03.382,1.902381718,,,
03.384,2.106365836,,,
03.386,2.122684565,,,
03.388,2.163481389,,,
03.390,2.326668683,,,
03.392,2.302190589,,,
03.394,2.595927718,,,
03.396,2.555130894,,,
03.398,2.326668683,,,
03.400,2.016612824,,,
03.402,2.008453459,,,
03.404,2.163481389,,,
03.406,2.171640753,,,
03.408,2.277712495,,,
03.410,2.277712495,,,
03.412,2.416421694,,,
03.414,2.653043271,,,
03.416,2.424581059,,,
03.418,2.285871859,,,
03.420,1.894222353,,,
03.422,2.000294095,,,
03.424,2.147162659,,,
03.426,2.220596942,,,
03.428,2.139003295,,,
03.430,2.294031224,,,
03.432,2.383784236,,,
03.434,2.669362,,,
03.436,2.432740424,,,
03.438,2.334828047,,,
03.440,1.877903624,,,
03.442,2.000294095,,,
03.444,2.155322024,,,
03.446,2.163481389,,,
03.448,2.196118847,,,
03.450,2.334828047,,,
03.452,2.375624871,,,
03.454,2.604087083,,,
03.456,2.400102965,,,
03.458,2.26955313,,,
03.460,1.877903624,,,
03.462,2.049250283,,,
03.464,2.155322024,,,
03.466,2.179800118,,,
03.468,2.212437577,,,
03.470,2.351146777,,,
03.472,2.473537247,,,
03.474,2.563290259,,,
03.476,2.457218518,,,
03.478,2.318509318,,,
03.480,1.943178542,,,
03.482,2.098206471,,,
03.484,2.098206471,,,
03.486,2.139003295,,,
03.488,2.277712495,,,
03.490,2.40826233,,,
03.492,2.473537247,,,
03.494,2.555130894,,,
03.496,2.367465506,,,
03.498,2.334828047,,,
03.500,1.812628706,,,
03.502,1.935019177,,,
03.504,2.179800118,,,
03.506,2.212437577,,,
03.508,2.2532344,,,
03.510,2.342987412,,,
03.512,2.457218518,,,
03.514,2.587768353,,,
03.516,2.440899789,,,
03.518,2.163481389,,,
03.520,1.877903624,,,
03.522,2.073728377,,,
03.524,2.220596942,,,
03.526,2.2532344,,,
03.528,2.26955313,,,
03.530,2.359306142,,,
03.532,2.579608989,,,
03.534,2.612246447,,,
03.536,2.3919436,,,
03.538,2.139003295,,,
03.540,1.845266165,,,
03.542,2.122684565,,,
03.544,2.204278212,,,
03.546,2.081887742,,,
03.548,2.351146777,,,
03.550,2.310349953,,,
03.552,2.400102965,,,
03.554,2.514334071,,,
03.556,2.3919436,,,
03.558,2.098206471,,,
03.560,1.763672518,,,
03.562,2.13084393,,,
03.564,2.196118847,,,
03.566,2.163481389,,,
03.568,2.261393765,,,
03.570,2.277712495,,,
03.572,2.457218518,,,
03.574,2.489855977,,,
03.576,2.334828047,,,
03.578,2.073728377,,,
03.580,1.804469342,,,
03.582,2.090047106,,,
03.584,2.098206471,,,
03.586,2.065569012,,,
03.588,2.2532344,,,
03.590,2.261393765,,,
03.592,2.514334071,,,
03.594,2.538812165,,,
03.596,2.351146777,,,
03.598,1.983975365,,,
03.600,1.804469342,,,
03.602,2.106365836,,,
03.604,2.090047106,,,
03.606,2.236915671,,,
03.608,2.432740424,,,
03.610,2.40826233,,,
03.612,2.595927718,,,
03.614,2.555130894,,,
03.616,2.342987412,,,
03.618,2.106365836,,,
03.620,1.820788071,,,
03.622,2.147162659,,,
03.624,2.204278212,,,
03.626,2.236915671,,,
03.628,2.342987412,,,
03.630,2.318509318,,,
03.632,2.481696612,,,
03.634,2.555130894,,,
03.636,2.432740424,,,
03.638,2.081887742,,,
03.640,1.869744259,,,
03.642,2.179800118,,,
03.644,2.106365836,,,
03.646,2.236915671,,,
03.648,2.40826233,,,
03.650,2.40826233,,,
03.652,2.693840094,,,
03.654,2.579608989,,,
03.656,2.481696612,,,
03.658,2.147162659,,,
03.660,2.041090918,,,
03.662,2.261393765,,,
03.664,2.187959483,,,
03.666,2.2532344,,,
03.668,2.489855977,,,
03.670,2.587768353,,,
03.672,2.840708659,,,
03.674,2.701999459,,,
03.676,2.522493436,,,
03.678,2.212437577,,,
03.680,2.1145252,,,
03.682,2.375624871,,,
03.684,2.310349953,,,
03.686,2.342987412,,,
03.688,2.473537247,,,
03.690,2.514334071,,,
03.692,2.857027389,,,
03.694,2.726477553,,,
03.696,2.5306528,,,
03.698,2.147162659,,,
03.700,2.106365836,,,
03.702,2.236915671,,,
03.704,2.220596942,,,
03.706,2.359306142,,,
03.708,2.457218518,,,
03.710,2.54697153,,,
03.712,2.759115012,,,
03.714,2.579608989,,,
03.716,2.367465506,,,
03.718,2.016612824,,,
03.720,1.975816,,,
03.722,2.106365836,,,
03.724,2.171640753,,,
03.726,2.204278212,,,
03.728,2.334828047,,,
03.730,2.367465506,,,
03.732,2.677521365,,,
03.734,2.416421694,,,
03.736,2.294031224,,,
03.738,1.820788071,,,
03.740,1.99213473,,,
03.742,2.090047106,,,
03.744,2.155322024,,,
03.746,2.13084393,,,
03.748,2.261393765,,,
03.750,2.334828047,,,
03.752,2.481696612,,,
03.754,2.310349953,,,
03.756,2.261393765,,,
03.758,1.877903624,,,
03.760,1.926859812,,,
03.762,2.008453459,,,
03.764,2.016612824,,,
03.766,2.139003295,,,
03.768,2.318509318,,,
03.770,2.2532344,,,
03.772,2.514334071,,,
03.774,2.220596942,,,
03.776,2.122684565,,,
03.778,1.633122683,,,
03.780,1.869744259,,,
03.782,1.975816,,,
03.784,1.975816,,,
03.786,1.918700448,,,
03.788,2.1145252,,,
03.790,2.351146777,,,
03.792,2.522493436,,,
03.794,2.465377883,,,
03.796,2.473537247,,,
03.798,2.375624871,,,
03.800,2.791752471,,,
03.802,3.158923883,,,
03.804,3.354748636,,,
03.806,3.65664513,,,
03.808,3.885107341,,,
03.810,4.211481929,,,
03.812,4.260438118,,,
03.814,3.999338447,,,
03.816,3.689282588,,,
03.818,3.248676894,,,
03.820,3.297633083,,,
03.822,3.256836259,,,
03.824,3.0854896,,,
03.826,3.061011506,,,
03.828,2.783593106,,,
03.830,2.734636918,,,
03.832,2.636724542,,,
03.834,2.40826233,,,
03.836,2.212437577,,,
03.838,1.861584895,,,
03.840,2.008453459,,,
03.842,2.041090918,,,
03.844,2.000294095,,,
03.846,2.179800118,,,
03.848,2.236915671,,,
03.850,2.416421694,,,
03.852,2.424581059,,,
03.854,2.228756306,,,
03.856,2.000294095,,,
03.858,1.788150612,,,
03.860,2.032931553,,,
03.862,2.13084393,,,
03.864,2.196118847,,,
03.866,2.220596942,,,
03.868,2.416421694,,,
03.870,2.604087083,,,
03.872,2.465377883,,,
03.874,2.277712495,,,
03.876,2.032931553,,,
03.878,1.886062989,,,
03.880,2.13084393,,,
03.882,2.204278212,,,
03.884,2.2532344,,,
03.886,2.294031224,,,
03.888,2.351146777,,,
03.890,2.563290259,,,
03.892,2.563290259,,,
03.894,2.277712495,,,
03.896,2.1145252,,,
03.898,1.8371068,,,
03.900,2.106365836,,,
03.902,2.196118847,,,
03.904,2.196118847,,,
03.906,2.261393765,,,
03.908,2.351146777,,,
03.910,2.604087083,,,
03.912,2.506174706,,,
03.914,2.302190589,,,
03.916,2.106365836,,,
03.918,1.85342553,,,
03.920,2.236915671,,,
03.922,2.236915671,,,
03.924,2.294031224,,,
03.926,2.351146777,,,
03.928,2.465377883,,,
03.930,2.68568073,,,
03.932,2.579608989,,,
03.934,2.383784236,,,
03.936,2.147162659,,,
03.938,1.902381718,,,
03.940,2.187959483,,,
03.942,2.139003295,,,
03.944,2.204278212,,,
03.946,2.359306142,,,
03.948,2.498015342,,,
03.950,2.701999459,,,
03.952,2.538812165,,,
03.954,2.400102965,,,
03.956,2.106365836,,,
03.958,1.959497271,,,
03.960,2.236915671,,,
03.962,2.285871859,,,
03.964,2.359306142,,,
03.966,2.424581059,,,
03.968,2.457218518,,,
03.970,2.669362,,,
03.972,2.489855977,,,
03.974,2.416421694,,,
03.976,2.171640753,,,
03.978,2.1145252,,,
03.980,2.302190589,,,
03.982,2.261393765,,,
03.984,2.367465506,,,
03.986,2.653043271,,,
03.988,2.628565177,,,
03.990,2.775433741,,,
03.992,2.701999459,,,
03.994,2.644883906,,,
03.996,2.294031224,,,
03.998,2.236915671,,,
04.000,2.367465506,,,
04.002,2.489855977,,,
04.004,2.54697153,,,
04.006,2.644883906,,,
04.008,2.669362,,,
04.010,2.96309913,,,
04.012,2.840708659,,,
04.014,2.767274377,,,
04.016,2.294031224,,,
04.018,2.416421694,,,
04.020,2.555130894,,,
04.022,2.506174706,,,
04.024,2.742796283,,,
04.026,2.865186753,,,
04.028,2.832549294,,,
04.030,3.028374047,,,
04.032,2.857027389,,,
04.034,2.799911836,,,
04.036,2.489855977,,,
04.038,2.473537247,,,
04.040,2.644883906,,,
04.042,2.579608989,,,
04.044,2.636724542,,,
04.046,2.799911836,,,
04.048,2.889664847,,,
04.050,3.077330236,,,
04.052,2.832549294,,,
04.054,2.759115012,,,
04.056,2.383784236,,,
04.058,2.563290259,,,
04.060,2.644883906,,,
04.062,2.612246447,,,
04.064,2.644883906,,,
04.066,2.734636918,,,
04.068,2.865186753,,,
04.070,2.971258494,,,
04.072,2.82438993,,,
04.074,2.68568073,,,
04.076,2.236915671,,,
04.078,2.383784236,,,
04.080,2.465377883,,,
04.082,2.432740424,,,
04.084,2.54697153,,,
04.086,2.644883906,,,
04.088,2.677521365,,,
04.090,2.938621036,,,
04.092,2.653043271,,,
04.094,2.449059153,,,
04.096,2.13084393,,,
04.098,2.285871859,,,
04.100,2.383784236,,,
04.102,2.3919436,,,
04.104,2.424581059,,,
04.106,2.514334071,,,
04.108,2.628565177,,,
04.110,2.68568073,,,
04.112,2.522493436,,,
04.114,2.245075036,,,
04.116,2.000294095,,,
04.118,2.147162659,,,
04.120,2.212437577,,,
04.122,2.318509318,,,
04.124,2.449059153,,,
04.126,2.498015342,,,
04.128,2.612246447,,,
04.130,2.701999459,,,
04.132,2.440899789,,,
04.134,2.171640753,,,
04.136,1.99213473,,,
04.138,2.196118847,,,
04.140,2.171640753,,,
04.142,2.196118847,,,
04.144,2.383784236,,,
04.146,2.481696612,,,
04.148,2.68568073,,,
04.150,2.68568073,,,
04.152,2.424581059,,,
04.154,2.155322024,,,
04.156,1.951337906,,,
04.158,2.245075036,,,
04.160,2.277712495,,,
04.162,2.310349953,,,
04.164,2.489855977,,,
04.166,2.571449624,,,
04.168,2.677521365,,,
04.170,2.612246447,,,
04.172,2.424581059,,,
04.174,2.171640753,,,
04.176,1.99213473,,,
04.178,2.228756306,,,
04.180,2.326668683,,,
04.182,2.432740424,,,
04.184,2.465377883,,,
04.186,2.514334071,,,
04.188,2.783593106,,,
04.190,2.661202636,,,
04.192,2.514334071,,,
04.194,2.212437577,,,
04.196,2.008453459,,,
04.198,2.236915671,,,
04.200,2.277712495,,,
04.202,2.351146777,,,
04.204,2.489855977,,,
04.206,2.571449624,,,
04.208,2.710158824,,,
04.210,2.636724542,,,
04.212,2.440899789,,,
04.214,2.2532344,,,
04.216,2.098206471,,,
04.218,2.326668683,,,
04.220,2.310349953,,,
04.222,2.40826233,,,
04.224,2.481696612,,,
04.226,2.522493436,,,
04.228,2.767274377,,,
04.230,2.68568073,,,
04.232,2.506174706,,,
04.234,2.187959483,,,
04.236,2.000294095,,,
04.238,2.261393765,,,
04.240,2.212437577,,,
04.242,2.310349953,,,
04.244,2.440899789,,,
04.246,2.465377883,,,
04.248,2.734636918,,,
04.250,2.653043271,,,
04.252,2.498015342,,,
04.254,2.220596942,,,
04.256,2.155322024,,,
04.258,2.342987412,,,
04.260,2.294031224,,,
04.262,2.400102965,,,
04.264,2.432740424,,,
04.266,2.612246447,,,
04.268,2.775433741,,,
04.270,2.661202636,,,
04.272,2.5306528,,,
04.274,2.228756306,,,
04.276,2.122684565,,,
04.278,2.334828047,,,
04.280,2.359306142,,,
04.282,2.465377883,,,
04.284,2.571449624,,,
04.286,2.54697153,,,
04.288,2.832549294,,,
04.290,2.734636918,,,
04.292,2.5306528,,,
04.294,2.220596942,,,
04.296,2.245075036,,,
04.298,2.310349953,,,
04.300,2.351146777,,,
04.302,2.489855977,,,
04.304,2.595927718,,,
04.306,2.54697153,,,
04.308,2.865186753,,,
04.310,2.710158824,,,
04.312,2.563290259,,,
04.314,2.122684565,,,
04.316,2.245075036,,,
04.318,2.285871859,,,
04.320,2.375624871,,,
04.322,2.3919436,,,
04.324,2.571449624,,,
04.326,2.628565177,,,
04.328,2.832549294,,,
04.330,2.734636918,,,
04.332,2.514334071,,,
04.334,2.212437577,,,
04.336,2.310349953,,,
04.338,2.3919436,,,
04.340,2.424581059,,,
04.342,2.481696612,,,
04.344,2.595927718,,,
04.346,2.710158824,,,
04.348,2.865186753,,,
04.350,2.661202636,,,
04.352,2.5306528,,,
04.354,2.139003295,,,
04.356,2.26955313,,,
04.358,2.302190589,,,
04.360,2.400102965,,,
04.362,2.465377883,,,
04.364,2.587768353,,,
04.366,2.693840094,,,
04.368,2.799911836,,,
04.370,2.612246447,,,
04.372,2.514334071,,,
04.374,2.147162659,,,
04.376,2.2532344,,,
04.378,2.359306142,,,
04.380,2.342987412,,,
04.382,2.538812165,,,
04.384,2.579608989,,,
04.386,2.791752471,,,
04.388,2.8080712,,,
04.390,2.604087083,,,
04.392,2.40826233,,,
04.394,2.041090918,,,
04.396,2.277712495,,,
04.398,2.318509318,,,
04.400,2.367465506,,,
04.402,2.571449624,,,
04.404,2.653043271,,,
04.406,2.767274377,,,
04.408,2.791752471,,,
04.410,2.734636918,,,
04.412,2.449059153,,,
04.414,2.147162659,,,
04.416,2.359306142,,,
04.418,2.416421694,,,
04.420,2.449059153,,,
04.422,2.604087083,,,
04.424,2.620405812,,,
04.426,2.783593106,,,
04.428,2.832549294,,,
04.430,2.653043271,,,
04.432,2.400102965,,,
04.434,2.204278212,,,
04.436,2.400102965,,,
04.438,2.440899789,,,
04.440,2.481696612,,,
04.442,2.653043271,,,
04.444,2.734636918,,,
04.446,2.873346118,,,
04.448,2.914142941,,,
04.450,2.693840094,,,
04.452,2.54697153,,,
04.454,2.236915671,,,
04.456,2.457218518,,,
04.458,2.506174706,,,
04.460,2.595927718,,,
04.462,2.775433741,,,
04.464,2.82438993,,,
04.466,3.061011506,,,
04.468,2.9467804,,,
04.470,2.742796283,,,
04.472,2.644883906,,,
04.474,2.334828047,,,
04.476,2.587768353,,,
04.478,2.636724542,,,
04.480,2.68568073,,,
04.482,2.82438993,,,
04.484,2.840708659,,,
04.486,3.052852141,,,
04.488,3.003895953,,,
04.490,2.816230565,,,
04.492,2.54697153,,,
04.494,2.220596942,,,
04.496,2.54697153,,,
04.498,2.595927718,,,
04.500,2.734636918,,,
04.502,2.775433741,,,
04.504,2.644883906,,,
04.506,2.914142941,,,
04.508,2.873346118,,,
04.510,2.661202636,,,
04.512,2.449059153,,,
04.514,2.187959483,,,
04.516,2.514334071,,,
04.518,2.5306528,,,
04.520,2.5306528,,,
04.522,2.669362,,,
04.524,2.669362,,,
04.526,2.905983577,,,
04.528,2.82438993,,,
04.530,2.612246447,,,
04.532,2.302190589,,,
04.534,2.139003295,,,
04.536,2.432740424,,,
04.538,2.359306142,,,
04.540,2.498015342,,,
04.542,2.587768353,,,
04.544,2.653043271,,,
04.546,2.881505483,,,
04.548,2.783593106,,,
04.550,2.563290259,,,
04.552,2.277712495,,,
04.554,2.163481389,,,
04.556,2.375624871,,,
04.558,2.326668683,,,
04.560,2.432740424,,,
04.562,2.661202636,,,
04.564,2.653043271,,,
04.566,2.881505483,,,
04.568,2.710158824,,,
04.570,2.498015342,,,
04.572,2.220596942,,,
04.574,2.147162659,,,
04.576,2.163481389,,,
04.578,2.179800118,,,
04.580,2.245075036,,,
04.582,2.367465506,,,
04.584,2.538812165,,,
04.586,2.783593106,,,
04.588,2.669362,,,
04.590,2.734636918,,,
04.592,2.571449624,,,
04.594,2.857027389,,,
04.596,3.2241988,,,
04.598,3.468979741,,,
04.600,2.2532344,,,
04.602,2.302190589,,,
04.604,2.302190589,,,
04.606,2.285871859,,,
04.608,2.342987412,,,
04.610,2.465377883,,,
04.612,2.538812165,,,
04.614,2.726477553,,,
04.616,2.514334071,,,
04.618,2.40826233,,,
04.620,2.098206471,,,
04.622,2.277712495,,,
04.624,2.318509318,,,
04.626,2.367465506,,,
04.628,2.440899789,,,
04.630,2.604087083,,,
04.632,2.68568073,,,
04.634,2.8080712,,,
04.636,2.612246447,,,
04.638,2.440899789,,,
04.640,2.163481389,,,
04.642,2.3919436,,,
04.644,2.3919436,,,
04.646,2.40826233,,,
04.648,2.522493436,,,
04.650,2.612246447,,,
04.652,2.783593106,,,
04.654,2.873346118,,,
04.656,2.628565177,,,
04.658,2.538812165,,,
04.660,2.228756306,,,
04.662,2.302190589,,,
04.664,2.440899789,,,
04.666,2.522493436,,,
04.668,2.522493436,,,
04.670,2.644883906,,,
04.672,2.848868024,,,
04.674,2.857027389,,,
04.676,2.595927718,,,
04.678,2.424581059,,,
04.680,2.065569012,,,
04.682,2.367465506,,,
04.684,2.440899789,,,
04.686,2.489855977,,,
04.688,2.604087083,,,
04.690,2.693840094,,,
04.692,2.938621036,,,
04.694,2.922302306,,,
04.696,2.750955647,,,
04.698,2.383784236,,,
04.700,2.1145252,,,
04.702,2.342987412,,,
04.704,2.465377883,,,
04.706,2.440899789,,,
04.708,2.653043271,,,
04.710,2.693840094,,,
04.712,2.922302306,,,
04.714,2.865186753,,,
04.716,2.759115012,,,
04.718,2.498015342,,,
04.720,2.236915671,,,
04.722,2.473537247,,,
04.724,2.473537247,,,
04.726,2.579608989,,,
04.728,2.669362,,,
04.730,2.783593106,,,
04.732,2.914142941,,,
04.734,2.938621036,,,
04.736,2.759115012,,,
04.738,2.571449624,,,
04.740,2.26955313,,,
04.742,2.5306528,,,
04.744,2.595927718,,,
04.746,2.595927718,,,
04.748,2.742796283,,,
04.750,2.759115012,,,
04.752,2.979417859,,,
04.754,2.938621036,,,
04.756,2.82438993,,,
04.758,2.538812165,,,
04.760,2.342987412,,,
04.762,2.571449624,,,
04.764,2.710158824,,,
04.766,2.767274377,,,
04.768,2.857027389,,,
04.770,2.897824212,,,
04.772,3.150764518,,,
04.774,3.036533412,,,
04.776,2.840708659,,,
04.778,2.579608989,,,
04.780,2.40826233,,,
04.782,2.742796283,,,
04.784,2.775433741,,,
04.786,2.865186753,,,
04.788,3.020214683,,,
04.790,2.9467804,,,
04.792,3.256836259,,,
04.794,3.216039436,,,
04.796,3.036533412,,,
04.798,2.734636918,,,
04.800,2.563290259,,,
04.802,2.8080712,,,
04.804,2.848868024,,,
04.806,2.905983577,,,
04.808,2.96309913,,,
04.810,3.0854896,,,
04.812,3.37922673,,,
04.814,3.2241988,,,
04.816,3.003895953,,,
04.818,2.799911836,,,
04.820,2.742796283,,,
04.822,2.889664847,,,
04.824,2.897824212,,,
04.826,2.987577224,,,
04.828,3.109967694,,,
04.830,3.134445788,,,
04.832,3.362908,,,
04.834,3.2241988,,,
04.836,3.069170871,,,
04.838,2.693840094,,,
04.840,2.701999459,,,
04.842,2.783593106,,,
04.844,2.750955647,,,
04.846,2.865186753,,,
04.848,2.914142941,,,
04.850,2.897824212,,,
04.852,3.175242612,,,
04.854,2.979417859,,,
04.856,2.873346118,,,
04.858,2.457218518,,,
04.860,2.449059153,,,
04.862,2.620405812,,,
04.864,2.579608989,,,
04.866,2.669362,,,
04.868,2.791752471,,,
04.870,2.783593106,,,
04.872,2.930461671,,,
04.874,2.791752471,,,
04.876,2.661202636,,,
04.878,2.310349953,,,
04.880,2.367465506,,,
04.882,2.514334071,,,
04.884,2.522493436,,,
04.886,2.644883906,,,
04.888,2.734636918,,,
04.890,2.767274377,,,
04.892,2.938621036,,,
04.894,2.644883906,,,
04.896,2.563290259,,,
04.898,2.310349953,,,
04.900,2.302190589,,,
04.902,2.40826233,,,
04.904,2.424581059,,,
04.906,2.449059153,,,
04.908,2.653043271,,,
04.910,2.693840094,,,
04.912,2.889664847,,,
04.914,2.718318189,,,
04.916,2.587768353,,,
04.918,2.26955313,,,
04.920,2.40826233,,,
04.922,2.514334071,,,
04.924,2.481696612,,,
04.926,2.473537247,,,
04.928,2.68568073,,,
04.930,2.767274377,,,
04.932,2.873346118,,,
04.934,2.718318189,,,
04.936,2.563290259,,,
04.938,2.220596942,,,
04.940,2.400102965,,,
04.942,2.506174706,,,
04.944,2.465377883,,,
04.946,2.636724542,,,
04.948,2.710158824,,,
04.950,2.857027389,,,
04.952,2.987577224,,,
04.954,2.636724542,,,
04.956,2.440899789,,,
04.958,2.139003295,,,
04.960,2.351146777,,,
04.962,2.473537247,,,
04.964,2.424581059,,,
04.966,2.54697153,,,
04.968,2.587768353,,,
04.970,2.791752471,,,
04.972,2.840708659,,,
04.974,2.775433741,,,
04.976,2.489855977,,,
04.978,2.139003295,,,
04.980,2.367465506,,,
04.982,2.40826233,,,
04.984,2.432740424,,,
04.986,2.571449624,,,
04.988,2.669362,,,
04.990,2.905983577,,,
04.992,2.759115012,,,
04.994,2.636724542,,,
04.996,2.400102965,,,
04.998,2.1145252,,,
05.000,2.318509318,,,
05.002,2.334828047,,,
05.004,2.465377883,,,
05.006,2.571449624,,,
05.008,2.653043271,,,
05.010,2.8080712,,,
05.012,2.775433741,,,
05.014,2.5306528,,,
05.016,2.310349953,,,
05.018,2.081887742,,,
05.020,2.318509318,,,
05.022,2.40826233,,,
05.024,2.440899789,,,
05.026,2.555130894,,,
05.028,2.628565177,,,
05.030,2.8080712,,,
05.032,2.8080712,,,
05.034,2.595927718,,,
05.036,2.318509318,,,
05.038,2.122684565,,,
05.040,2.342987412,,,
05.042,2.318509318,,,
05.044,2.489855977,,,
05.046,2.677521365,,,
05.048,2.612246447,,,
05.050,2.889664847,,,
05.052,2.759115012,,,
05.054,2.68568073,,,
05.056,2.375624871,,,
05.058,2.073728377,,,
05.060,2.424581059,,,
05.062,2.416421694,,,
05.064,2.359306142,,,
05.066,2.5306528,,,
05.068,2.571449624,,,
05.070,2.840708659,,,
05.072,2.726477553,,,
05.074,2.571449624,,,
05.076,2.310349953,,,
05.078,2.090047106,,,
05.080,2.294031224,,,
05.082,2.302190589,,,
05.084,2.416421694,,,
05.086,2.604087083,,,
05.088,2.595927718,,,
05.090,2.767274377,,,
05.092,2.759115012,,,
05.094,2.489855977,,,
05.096,2.204278212,,,
05.098,2.032931553,,,
05.100,2.342987412,,,
05.102,2.359306142,,,
05.104,2.400102965,,,
05.106,2.612246447,,,
05.108,2.555130894,,,
05.110,2.82438993,,,
05.112,2.750955647,,,
05.114,2.579608989,,,
05.116,2.318509318,,,
05.118,2.1145252,,,
05.120,2.285871859,,,
05.122,2.236915671,,,
05.124,2.440899789,,,
05.126,2.587768353,,,
05.128,2.440899789,,,
05.130,2.742796283,,,
05.132,2.68568073,,,
05.134,2.538812165,,,
05.136,2.179800118,,,
05.138,2.155322024,,,
05.140,2.26955313,,,
05.142,2.261393765,,,
05.144,2.375624871,,,
05.146,2.506174706,,,
05.148,2.498015342,,,
05.150,2.710158824,,,
05.152,2.604087083,,,
05.154,2.465377883,,,
05.156,2.13084393,,,
05.158,2.204278212,,,
05.160,2.2532344,,,
05.162,2.302190589,,,
05.164,2.481696612,,,
05.166,2.54697153,,,
05.168,2.465377883,,,
05.170,2.68568073,,,
05.172,2.612246447,,,
05.174,2.440899789,,,
05.176,2.1145252,,,
05.178,2.122684565,,,
05.180,2.294031224,,,
05.182,2.294031224,,,
05.184,2.26955313,,,
05.186,2.424581059,,,
05.188,2.522493436,,,
05.190,2.661202636,,,
05.192,2.449059153,,,
05.194,2.522493436,,,
05.196,2.073728377,,,
05.198,2.1145252,,,
05.200,2.179800118,,,
05.202,2.171640753,,,
05.204,2.351146777,,,
05.206,2.432740424,,,
05.208,2.54697153,,,
05.210,2.677521365,,,
05.212,2.473537247,,,
05.214,2.351146777,,,
05.216,1.926859812,,,
05.218,2.147162659,,,
05.220,2.204278212,,,
05.222,2.220596942,,,
05.224,2.359306142,,,
05.226,2.473537247,,,
05.228,2.538812165,,,
05.230,2.644883906,,,
05.232,2.440899789,,,
05.234,2.351146777,,,
05.236,2.008453459,,,
05.238,2.106365836,,,
05.240,2.032931553,,,
05.242,2.163481389,,,
05.244,2.359306142,,,
05.246,2.432740424,,,
05.248,2.628565177,,,
05.250,2.595927718,,,
05.252,2.538812165,,,
05.254,2.294031224,,,
05.256,1.951337906,,,
05.258,2.1145252,,,
05.260,2.179800118,,,
05.262,2.204278212,,,
05.264,2.40826233,,,
05.266,2.449059153,,,
05.268,2.579608989,,,
05.270,2.669362,,,
05.272,2.498015342,,,
05.274,2.245075036,,,
05.276,1.975816,,,
05.278,2.2532344,,,
05.280,2.334828047,,,
05.282,2.302190589,,,
05.284,2.465377883,,,
05.286,2.538812165,,,
05.288,2.767274377,,,
05.290,2.701999459,,,
05.292,2.661202636,,,
05.294,2.318509318,,,
05.296,2.057409647,,,
05.298,2.318509318,,,
05.300,2.375624871,,,
05.302,2.342987412,,,
05.304,2.440899789,,,
05.306,2.571449624,,,
05.308,2.8080712,,,
05.310,2.726477553,,,
05.312,2.555130894,,,
05.314,2.351146777,,,
05.316,2.081887742,,,
05.318,2.228756306,,,
05.320,2.351146777,,,
05.322,2.3919436,,,
05.324,2.571449624,,,
05.326,2.54697153,,,
05.328,2.759115012,,,
05.330,2.677521365,,,
05.332,2.5306528,,,
05.334,2.26955313,,,
05.336,1.845266165,,,
05.338,2.212437577,,,
05.340,2.196118847,,,
05.342,2.204278212,,,
05.344,2.359306142,,,
05.346,2.3919436,,,
05.348,2.620405812,,,
05.350,2.506174706,,,
05.352,2.367465506,,,
05.354,2.13084393,,,
05.356,1.861584895,,,
05.358,2.081887742,,,
05.360,2.090047106,,,
05.362,2.179800118,,,
05.364,2.285871859,,,
05.366,2.277712495,,,
05.368,2.579608989,,,
05.370,2.506174706,,,
05.372,2.367465506,,,
05.374,2.000294095,,,
05.376,1.85342553,,,
05.378,2.098206471,,,
05.380,2.057409647,,,
05.382,2.171640753,,,
05.384,2.310349953,,,
05.386,2.245075036,,,
05.388,2.587768353,,,
05.390,2.473537247,,,
05.392,2.277712495,,,
05.394,1.902381718,,,
05.396,1.747353789,,,
05.398,1.943178542,,,
05.400,1.845266165,,,
05.402,1.935019177,,,
05.404,2.049250283,,,
05.406,2.13084393,,,
05.408,2.424581059,,,
05.410,2.424581059,,,
05.412,2.294031224,,,
05.414,2.171640753,,,
05.416,2.261393765,,,
05.418,2.653043271,,,
05.420,2.987577224,,,
05.422,3.371067365,,,
05.424,3.713760683,,,
05.426,3.9177448,,,
05.428,4.325713035,,,
05.430,4.227800659,,,
05.432,3.999338447,,,
05.434,3.689282588,,,
05.436,3.5016172,,,
05.438,3.452661012,,,
05.440,3.256836259,,,
05.442,3.109967694,,,
05.444,3.036533412,,,
05.446,2.783593106,,,
05.448,2.840708659,,,
05.450,2.514334071,,,
05.452,2.285871859,,,
05.454,1.959497271,,,
05.456,1.959497271,,,
05.458,2.016612824,,,
05.460,1.910541083,,,
05.462,2.032931553,,,
05.464,2.13084393,,,
05.466,2.163481389,,,
05.468,2.375624871,,,
05.470,2.204278212,,,
05.472,2.098206471,,,
05.474,1.771831883,,,
05.476,1.8371068,,,
05.478,2.024772189,,,
05.480,2.090047106,,,
05.482,2.171640753,,,
05.484,2.236915671,,,
05.486,2.187959483,,,
05.488,2.473537247,,,
05.490,2.416421694,,,
05.492,2.26955313,,,
05.494,1.820788071,,,
05.496,1.983975365,,,
05.498,2.024772189,,,
05.500,2.081887742,,,
05.502,2.155322024,,,
05.504,2.318509318,,,
05.506,2.383784236,,,
05.508,2.522493436,,,
05.510,2.2532344,,,
05.512,2.236915671,,,
05.514,1.828947436,,,
05.516,2.016612824,,,
05.518,2.024772189,,,
05.520,2.1145252,,,
05.522,2.147162659,,,
05.524,2.245075036,,,
05.526,2.3919436,,,
05.528,2.481696612,,,
05.530,2.318509318,,,
05.532,2.26955313,,,
05.534,1.886062989,,,
05.536,2.008453459,,,
05.538,2.122684565,,,
05.540,2.1145252,,,
05.542,2.220596942,,,
05.544,2.416421694,,,
05.546,2.498015342,,,
05.548,2.449059153,,,
05.550,2.187959483,,,
05.552,2.1145252,,,
05.554,1.886062989,,,
05.556,2.073728377,,,
05.558,2.1145252,,,
05.560,2.212437577,,,
05.562,2.375624871,,,
05.564,2.400102965,,,
05.566,2.563290259,,,
05.568,2.54697153,,,
05.570,2.310349953,,,
05.572,2.1145252,,,
05.574,1.910541083,,,
05.576,2.106365836,,,
05.578,2.204278212,,,
05.580,2.179800118,,,
05.582,2.400102965,,,
05.584,2.432740424,,,
05.586,2.669362,,,
05.588,2.579608989,,,
05.590,2.359306142,,,
05.592,2.1145252,,,
05.594,1.869744259,,,
05.596,2.147162659,,,
05.598,2.171640753,,,
05.600,2.318509318,,,
05.602,2.473537247,,,
05.604,2.440899789,,,
05.606,2.669362,,,
05.608,2.620405812,,,
05.610,2.473537247,,,
05.612,2.212437577,,,
05.614,2.016612824,,,
05.616,2.220596942,,,
05.618,2.285871859,,,
05.620,2.220596942,,,
05.622,2.465377883,,,
05.624,2.522493436,,,
05.626,2.644883906,,,
05.628,2.653043271,,,
05.630,2.416421694,,,
05.632,2.204278212,,,
05.634,1.983975365,,,
05.636,2.179800118,,,
05.638,2.2532344,,,
05.640,2.375624871,,,
05.642,2.481696612,,,
05.644,2.5306528,,,
05.646,2.783593106,,,
05.648,2.693840094,,,
05.650,2.514334071,,,
05.652,2.277712495,,,
05.654,2.098206471,,,
05.656,2.359306142,,,
05.658,2.334828047,,,
05.660,2.416421694,,,
05.662,2.489855977,,,
05.664,2.612246447,,,
05.666,2.865186753,,,
05.668,2.816230565,,,
05.670,2.587768353,,,
05.672,2.383784236,,,
05.674,2.187959483,,,
05.676,2.416421694,,,
05.678,2.440899789,,,
05.680,2.5306528,,,
05.682,2.612246447,,,
05.684,2.669362,,,
05.686,2.905983577,,,
05.688,2.799911836,,,
05.690,2.595927718,,,
05.692,2.285871859,,,
05.694,2.024772189,,,
05.696,2.294031224,,,
05.698,2.351146777,,,
05.700,2.457218518,,,
05.702,2.612246447,,,
05.704,2.595927718,,,
05.706,2.693840094,,,
05.708,2.571449624,,,
05.710,2.416421694,,,
05.712,2.13084393,,,
05.714,1.959497271,,,
05.716,2.171640753,,,
05.718,2.171640753,,,
05.720,2.163481389,,,
05.722,2.334828047,,,
05.724,2.318509318,,,
05.726,2.612246447,,,
05.728,2.440899789,,,
05.730,2.2532344,,,
05.732,1.902381718,,,
05.734,1.869744259,,,
05.736,2.000294095,,,
05.738,2.073728377,,,
05.740,2.187959483,,,
05.742,2.334828047,,,
05.744,2.294031224,,,
05.746,2.522493436,,,
05.748,2.326668683,,,
05.750,2.236915671,,,
05.752,1.869744259,,,
05.754,1.828947436,,,
05.756,1.959497271,,,
05.758,2.057409647,,,
05.760,2.147162659,,,
05.762,2.220596942,,,
05.764,2.334828047,,,
05.766,2.416421694,,,
05.768,2.318509318,,,
05.770,2.2532344,,,
05.772,1.894222353,,,
05.774,1.877903624,,,
05.776,2.032931553,,,
05.778,2.106365836,,,
05.780,2.057409647,,,
05.782,2.212437577,,,
05.784,2.294031224,,,
05.786,2.465377883,,,
05.788,2.359306142,,,
05.790,2.236915671,,,
05.792,1.869744259,,,
05.794,1.959497271,,,
05.796,2.073728377,,,
05.798,2.049250283,,,
05.800,2.106365836,,,
05.802,2.318509318,,,
05.804,2.359306142,,,
05.806,2.481696612,,,
05.808,2.294031224,,,
05.810,2.220596942,,,
05.812,1.894222353,,,
05.814,1.902381718,,,
05.816,2.016612824,,,
05.818,2.024772189,,,
05.820,2.155322024,,,
05.822,2.334828047,,,
05.824,2.367465506,,,
05.826,2.449059153,,,
05.828,2.302190589,,,
05.830,2.245075036,,,
05.832,1.820788071,,,
05.834,2.008453459,,,
05.836,2.081887742,,,
05.838,2.139003295,,,
05.840,2.179800118,,,
05.842,2.294031224,,,
05.844,2.449059153,,,
05.846,2.595927718,,,
05.848,2.383784236,,,
05.850,2.2532344,,,
05.852,1.918700448,,,
05.854,2.081887742,,,
05.856,2.122684565,,,
05.858,2.171640753,,,
05.860,2.245075036,,,
05.862,2.351146777,,,
05.864,2.5306528,,,
05.866,2.54697153,,,
05.868,2.342987412,,,
05.870,2.187959483,,,
05.872,1.951337906,,,
05.874,2.081887742,,,
05.876,2.081887742,,,
05.878,2.13084393,,,
05.880,2.432740424,,,
05.882,2.424581059,,,
05.884,2.555130894,,,
05.886,2.5306528,,,
05.888,2.40826233,,,
05.890,2.236915671,,,
05.892,1.99213473,,,
05.894,2.155322024,,,
05.896,2.179800118,,,
05.898,2.171640753,,,
05.900,2.359306142,,,
05.902,2.465377883,,,
05.904,2.587768353,,,
05.906,2.555130894,,,
05.908,2.367465506,,,
05.910,2.13084393,,,
05.912,1.910541083,,,
05.914,2.155322024,,,
05.916,2.13084393,,,
05.918,2.187959483,,,
05.920,2.342987412,,,
05.922,2.359306142,,,
05.924,2.661202636,,,
05.926,2.612246447,,,
05.928,2.375624871,,,
05.930,2.171640753,,,
05.932,1.763672518,,,
05.934,2.106365836,,,
05.936,2.090047106,,,
05.938,2.179800118,,,
05.940,2.294031224,,,
05.942,2.351146777,,,
05.944,2.628565177,,,
05.946,2.563290259,,,
05.948,2.367465506,,,
05.950,2.122684565,,,
05.952,1.886062989,,,
05.954,2.122684565,,,
05.956,2.049250283,,,
05.958,2.334828047,,,
05.960,2.277712495,,,
05.962,2.310349953,,,
05.964,2.595927718,,,
05.966,2.54697153,,,
05.968,2.383784236,,,
05.970,2.090047106,,,
05.972,1.926859812,,,
05.974,2.147162659,,,
05.976,2.13084393,,,
05.978,2.236915671,,,
05.980,2.351146777,,,
05.982,2.326668683,,,
05.984,2.620405812,,,
05.986,2.538812165,,,
05.988,2.359306142,,,
05.990,2.065569012,,,
05.992,1.886062989,,,
05.994,2.187959483,,,
05.996,2.098206471,,,
05.998,2.245075036,,,
06.000,2.375624871,,,
06.002,2.318509318,,,
06.004,2.661202636,,,
06.006,2.481696612,,,
06.008,2.326668683,,,
06.010,2.065569012,,,
06.012,1.902381718,,,
06.014,2.139003295,,,
06.016,2.187959483,,,
06.018,2.302190589,,,
06.020,2.367465506,,,
06.022,2.400102965,,,
06.024,2.677521365,,,
06.026,2.563290259,,,
06.028,2.3919436,,,
06.030,2.106365836,,,
06.032,2.000294095,,,
06.034,2.212437577,,,
06.036,2.236915671,,,
06.038,2.261393765,,,
06.040,2.498015342,,,
06.042,2.457218518,,,
06.044,2.669362,,,
06.046,2.579608989,,,
06.048,2.457218518,,,
06.050,2.171640753,,,
06.052,2.098206471,,,
06.054,2.326668683,,,
06.056,2.285871859,,,
06.058,2.285871859,,,
06.060,2.498015342,,,
06.062,2.555130894,,,
06.064,2.8080712,,,
06.066,2.628565177,,,
06.068,2.563290259,,,
06.070,2.236915671,,,
06.072,2.204278212,,,
06.074,2.367465506,,,
06.076,2.432740424,,,
06.078,2.449059153,,,
06.080,2.5306528,,,
06.082,2.734636918,,,
06.084,2.897824212,,,
06.086,2.742796283,,,
06.088,2.701999459,,,
06.090,2.163481389,,,
06.092,2.245075036,,,
06.094,2.302190589,,,
06.096,2.334828047,,,
06.098,2.473537247,,,
06.100,2.612246447,,,
06.102,2.68568073,,,
06.104,2.865186753,,,
06.106,2.68568073,,,
06.108,2.473537247,,,
06.110,2.122684565,,,
06.112,2.228756306,,,
06.114,2.302190589,,,
06.116,2.236915671,,,
06.118,2.3919436,,,
06.120,2.416421694,,,
06.122,2.54697153,,,
06.124,2.571449624,,,
06.126,2.416421694,,,
06.128,2.310349953,,,
06.130,1.918700448,,,
06.132,2.139003295,,,
06.134,2.163481389,,,
06.136,2.147162659,,,
06.138,2.220596942,,,
06.140,2.383784236,,,
06.142,2.506174706,,,
06.144,2.506174706,,,
06.146,2.498015342,,,
06.148,2.285871859,,,
06.150,1.967656636,,,
06.152,2.057409647,,,
06.154,2.155322024,,,
06.156,2.220596942,,,
06.158,2.359306142,,,
06.160,2.40826233,,,
06.162,2.555130894,,,
06.164,2.612246447,,,
06.166,2.383784236,,,
06.168,2.196118847,,,
06.170,1.910541083,,,
06.172,2.098206471,,,
06.174,2.13084393,,,
06.176,2.163481389,,,
06.178,2.285871859,,,
06.180,2.302190589,,,
06.182,2.449059153,,,
06.184,2.465377883,,,
06.186,2.122684565,,,
06.188,1.926859812,,,
06.190,1.641282048,,,
06.192,1.935019177,,,
06.194,2.024772189,,,
06.196,2.090047106,,,
06.198,2.465377883,,,
06.200,2.636724542,,,
06.202,3.134445788,,,
06.204,3.330270541,,,
06.206,3.403704824,,,
06.208,3.37922673,,,
06.210,3.403704824,,,
06.212,3.819832424,,,
06.214,3.909585435,,,
06.216,3.909585435,,,
06.218,4.040135271,,,
06.220,3.974860353,,,
06.222,4.048294635,,,
06.224,3.697441953,,,
06.226,3.411864188,,,
06.228,2.930461671,,,
06.230,2.522493436,,,
06.232,2.481696612,,,
06.234,2.261393765,,,
06.236,2.236915671,,,
06.238,2.351146777,,,
06.240,2.440899789,,,
06.242,2.653043271,,,
06.244,2.424581059,,,
06.246,2.204278212,,,
06.248,1.894222353,,,
06.250,1.641282048,,,
06.252,1.910541083,,,
06.254,1.975816,,,
06.256,2.081887742,,,
06.258,2.302190589,,,
06.260,2.310349953,,,
06.262,2.620405812,,,
06.264,2.481696612,,,
06.266,2.367465506,,,
06.268,2.065569012,,,
06.270,1.845266165,,,
06.272,2.122684565,,,
06.274,2.196118847,,,
06.276,2.236915671,,,
06.278,2.351146777,,,
06.280,2.416421694,,,
06.282,2.68568073,,,
06.284,2.587768353,,,
06.286,2.375624871,,,
06.288,2.106365836,,,
06.290,1.918700448,,,
06.292,2.171640753,,,
06.294,2.147162659,,,
06.296,2.26955313,,,
06.298,2.465377883,,,
06.300,2.449059153,,,
06.302,2.701999459,,,
06.304,2.587768353,,,
06.306,2.457218518,,,
06.308,2.049250283,,,
06.310,2.049250283,,,
06.312,2.196118847,,,
06.314,2.318509318,,,
06.316,2.245075036,,,
06.318,2.498015342,,,
06.320,2.506174706,,,
06.322,2.759115012,,,
06.324,2.661202636,,,
06.326,2.514334071,,,
06.328,2.212437577,,,
06.330,2.106365836,,,
06.332,2.342987412,,,
06.334,2.310349953,,,
06.336,2.40826233,,,
06.338,2.432740424,,,
06.340,2.473537247,,,
06.342,2.799911836,,,
06.344,2.677521365,,,
06.346,2.538812165,,,
06.348,2.228756306,,,
06.350,2.26955313,,,
06.352,2.375624871,,,
06.354,2.342987412,,,
06.356,2.489855977,,,
06.358,2.669362,,,
06.360,2.653043271,,,
06.362,2.857027389,,,
06.364,2.612246447,,,
06.366,2.628565177,,,
06.368,2.228756306,,,
06.370,2.302190589,,,
06.372,2.416421694,,,
06.374,2.351146777,,,
06.376,2.555130894,,,
06.378,2.669362,,,
06.380,2.791752471,,,
06.382,2.905983577,,,
06.384,2.669362,,,
06.386,2.555130894,,,
06.388,2.155322024,,,
06.390,2.236915671,,,
06.392,2.424581059,,,
06.394,2.481696612,,,
06.396,2.620405812,,,
06.398,2.775433741,,,
06.400,2.82438993,,,
06.402,3.003895953,,,
06.404,2.8080712,,,
06.406,2.693840094,,,
06.408,2.26955313,,,
06.410,2.400102965,,,
06.412,2.514334071,,,
06.414,2.604087083,,,
06.416,2.693840094,,,
06.418,2.873346118,,,
06.420,3.061011506,,,
06.422,3.10180833,,,
06.424,2.848868024,,,
06.426,2.783593106,,,
06.428,2.522493436,,,
06.430,2.718318189,,,
06.432,2.726477553,,,
06.434,2.840708659,,,
06.436,2.881505483,,,
06.438,2.897824212,,,
06.440,3.061011506,,,
06.442,3.232358165,,,
06.444,2.995736589,,,
06.446,2.832549294,,,
06.448,2.498015342,,,
06.450,2.701999459,,,
06.452,2.799911836,,,
06.454,2.881505483,,,
06.456,2.9467804,,,
06.458,3.012055318,,,
06.460,3.281314353,,,
06.462,3.444501647,,,
06.464,3.028374047,,,
06.466,2.840708659,,,
06.468,2.571449624,,,
06.470,2.653043271,,,
06.472,2.832549294,,,
06.474,2.775433741,,,
06.476,2.971258494,,,
06.478,2.873346118,,,
06.480,3.191561341,,,
06.482,3.126286424,,,
06.484,2.905983577,,,
06.486,2.612246447,,,
06.488,2.367465506,,,
06.490,2.54697153,,,
06.492,2.498015342,,,
06.494,2.514334071,,,
06.496,2.693840094,,,
06.498,2.799911836,,,
06.500,2.9467804,,,
06.502,2.82438993,,,
06.504,2.710158824,,,
06.506,2.424581059,,,
06.508,2.098206471,,,
06.510,2.351146777,,,
06.512,2.359306142,,,
06.514,2.473537247,,,
06.516,2.620405812,,,
06.518,2.604087083,,,
06.520,2.840708659,,,
06.522,2.759115012,,,
06.524,2.571449624,,,
06.526,2.334828047,,,
06.528,2.057409647,,,
06.530,2.318509318,,,
06.532,2.318509318,,,
06.534,2.383784236,,,
06.536,2.498015342,,,
06.538,2.538812165,,,
06.540,2.799911836,,,
06.542,2.750955647,,,
06.544,2.54697153,,,
06.546,2.285871859,,,
06.548,2.000294095,,,
06.550,2.318509318,,,
06.552,2.277712495,,,
06.554,2.375624871,,,
06.556,2.563290259,,,
06.558,2.604087083,,,
06.560,2.832549294,,,
06.562,2.734636918,,,
06.564,2.604087083,,,
06.566,2.261393765,,,
06.568,2.016612824,,,
06.570,2.228756306,,,
06.572,2.334828047,,,
06.574,2.334828047,,,
06.576,2.489855977,,,
06.578,2.538812165,,,
06.580,2.8080712,,,
06.582,2.742796283,,,
06.584,2.506174706,,,
06.586,2.26955313,,,
06.588,2.032931553,,,
06.590,2.2532344,,,
06.592,2.171640753,,,
06.594,2.563290259,,,
06.596,2.571449624,,,
06.598,2.644883906,,,
06.600,2.889664847,,,
06.602,2.701999459,,,
06.604,2.538812165,,,
06.606,2.220596942,,,
06.608,2.057409647,,,
06.610,2.351146777,,,
06.612,2.383784236,,,
06.614,2.40826233,,,
06.616,2.522493436,,,
06.618,2.644883906,,,
06.620,2.954939765,,,
06.622,2.693840094,,,
06.624,2.587768353,,,
06.626,2.302190589,,,
06.628,2.277712495,,,
06.630,2.400102965,,,
06.632,2.375624871,,,
06.634,2.489855977,,,
06.636,2.636724542,,,
06.638,2.612246447,,,
06.640,2.905983577,,,
06.642,2.767274377,,,
06.644,2.579608989,,,
06.646,2.187959483,,,
06.648,2.318509318,,,
06.650,2.440899789,,,
06.652,2.449059153,,,
06.654,2.571449624,,,
06.656,2.669362,,,
06.658,2.710158824,,,
06.660,2.971258494,,,
06.662,2.840708659,,,
06.664,2.612246447,,,
06.666,2.318509318,,,
06.668,2.294031224,,,
06.670,2.40826233,,,
06.672,2.5306528,,,
06.674,2.571449624,,,
06.676,2.669362,,,
06.678,2.791752471,,,
06.680,3.020214683,,,
06.682,2.832549294,,,
06.684,2.669362,,,
06.686,2.245075036,,,
06.688,2.3919436,,,
06.690,2.432740424,,,
06.692,2.457218518,,,
06.694,2.644883906,,,
06.696,2.9467804,,,
06.698,2.905983577,,,
06.700,3.012055318,,,
06.702,2.669362,,,
06.704,2.791752471,,,
06.706,2.351146777,,,
06.708,2.457218518,,,
06.710,2.555130894,,,
06.712,2.612246447,,,
06.714,2.68568073,,,
06.716,2.857027389,,,
06.718,3.052852141,,,
06.720,3.069170871,,,
06.722,2.767274377,,,
06.724,2.644883906,,,
06.726,2.318509318,,,
06.728,2.506174706,,,
06.730,2.579608989,,,
06.732,2.661202636,,,
06.734,2.718318189,,,
06.736,2.8080712,,,
06.738,2.979417859,,,
06.740,3.028374047,,,
06.742,2.791752471,,,
06.744,2.636724542,,,
06.746,2.318509318,,,
06.748,2.449059153,,,
06.750,2.571449624,,,
06.752,2.612246447,,,
06.754,2.783593106,,,
06.756,2.832549294,,,
06.758,3.028374047,,,
06.760,3.036533412,,,
06.762,2.799911836,,,
06.764,2.636724542,,,
06.766,2.326668683,,,
06.768,2.5306528,,,
06.770,2.54697153,,,
06.772,2.628565177,,,
06.774,2.8080712,,,
06.776,2.783593106,,,
06.778,2.987577224,,,
06.780,2.971258494,,,
06.782,2.775433741,,,
06.784,2.555130894,,,
06.786,2.277712495,,,
06.788,2.54697153,,,
06.790,2.571449624,,,
06.792,2.677521365,,,
06.794,2.799911836,,,
06.796,2.82438993,,,
06.798,3.012055318,,,
06.800,2.995736589,,,
06.802,2.791752471,,,
06.804,2.465377883,,,
06.806,2.204278212,,,
06.808,2.555130894,,,
06.810,2.628565177,,,
06.812,2.677521365,,,
06.814,2.832549294,,,
06.816,2.938621036,,,
06.818,3.061011506,,,
06.820,3.020214683,,,
06.822,2.775433741,,,
06.824,2.563290259,,,
06.826,2.351146777,,,
06.828,2.555130894,,,
06.830,2.571449624,,,
06.832,2.710158824,,,
06.834,2.791752471,,,
06.836,2.8080712,,,
06.838,3.061011506,,,
06.840,2.938621036,,,
06.842,2.881505483,,,
06.844,2.579608989,,,
06.846,2.294031224,,,
06.848,2.644883906,,,
06.850,2.555130894,,,
06.852,2.726477553,,,
06.854,2.799911836,,,
06.856,2.759115012,,,
06.858,3.069170871,,,
06.860,3.061011506,,,
06.862,2.865186753,,,
06.864,2.522493436,,,
06.866,2.334828047,,,
06.868,2.54697153,,,
06.870,2.563290259,,,
06.872,2.693840094,,,
06.874,2.82438993,,,
06.876,2.775433741,,,
06.878,3.158923883,,,
06.880,3.044692777,,,
06.882,2.848868024,,,
06.884,2.481696612,,,
06.886,2.334828047,,,
06.888,2.68568073,,,
06.890,2.644883906,,,
06.892,2.701999459,,,
06.894,2.889664847,,,
06.896,2.914142941,,,
06.898,3.248676894,,,
06.900,3.093648965,,,
06.902,2.922302306,,,
06.904,2.563290259,,,
06.906,2.595927718,,,
06.908,2.791752471,,,
06.910,2.750955647,,,
06.912,2.791752471,,,
06.914,2.922302306,,,
06.916,2.930461671,,,
06.918,3.232358165,,,
06.920,3.126286424,,,
06.922,3.003895953,,,
06.924,2.587768353,,,
06.926,2.595927718,,,
06.928,2.816230565,,,
06.930,2.775433741,,,
06.932,2.881505483,,,
06.934,3.003895953,,,
06.936,3.044692777,,,
06.938,3.281314353,,,
06.940,2.987577224,,,
06.942,2.881505483,,,
06.944,2.571449624,,,
06.946,2.571449624,,,
06.948,2.767274377,,,
06.950,2.799911836,,,
06.952,2.82438993,,,
06.954,2.938621036,,,
06.956,2.971258494,,,
06.958,3.134445788,,,
06.960,3.069170871,,,
06.962,2.840708659,,,
06.964,2.498015342,,,
06.966,2.498015342,,,
06.968,2.750955647,,,
06.970,2.677521365,,,
06.972,2.669362,,,
06.974,2.9467804,,,
06.976,3.012055318,,,
06.978,3.118127059,,,
06.980,2.96309913,,,
06.982,2.897824212,,,
06.984,2.489855977,,,
06.986,2.555130894,,,
06.988,2.693840094,,,
06.990,2.693840094,,,
06.992,2.759115012,,,
06.994,2.865186753,,,
06.996,2.873346118,,,
06.998,3.028374047,,,
07.000,2.857027389,,,
07.002,2.8080712,,,
07.004,2.359306142,,,
07.006,2.457218518,,,
07.008,2.5306528,,,
07.010,2.595927718,,,
07.012,2.734636918,,,
07.014,2.799911836,,,
07.016,2.930461671,,,
07.018,2.930461671,,,
07.020,2.701999459,,,
07.022,2.506174706,,,
07.024,2.155322024,,,
07.026,2.375624871,,,
07.028,2.424581059,,,
07.030,2.628565177,,,
07.032,2.865186753,,,
07.034,3.10180833,,,
07.036,3.526095294,,,
07.038,3.7790356,,,
07.040,3.844310518,,,
07.042,3.852469882,,,
07.044,3.689282588,,,
07.046,4.129888282,,,
07.048,4.244119388,,,
07.050,4.227800659,,,
07.052,4.366509859,,,
07.054,4.211481929,,,
07.056,4.317553671,,,
07.058,4.170685106,,,
07.060,3.811673059,,,
07.062,3.346589271,,,
07.064,2.865186753,,,
07.066,2.897824212,,,
07.068,2.799911836,,,
07.070,2.799911836,,,
07.072,2.799911836,,,
07.074,2.840708659,,,
07.076,2.922302306,,,
07.078,2.922302306,,,
07.080,2.68568073,,,
07.082,2.498015342,,,
07.084,2.13084393,,,
07.086,2.26955313,,,
07.088,2.40826233,,,
07.090,2.506174706,,,
07.092,2.726477553,,,
07.094,2.791752471,,,
07.096,3.003895953,,,
07.098,2.938621036,,,
07.100,2.783593106,,,
07.102,2.54697153,,,
07.104,2.342987412,,,
07.106,2.555130894,,,
07.108,2.620405812,,,
07.110,2.636724542,,,
07.112,2.799911836,,,
07.114,2.848868024,,,
07.116,3.069170871,,,
07.118,2.922302306,,,
07.120,2.905983577,,,
07.122,2.636724542,,,
07.124,2.310349953,,,
07.126,2.587768353,,,
07.128,2.563290259,,,
07.130,2.68568073,,,
07.132,2.791752471,,,
07.134,2.873346118,,,
07.136,3.036533412,,,
07.138,3.077330236,,,
07.140,2.865186753,,,
07.142,2.506174706,,,
07.144,2.318509318,,,
07.146,2.677521365,,,
07.148,2.604087083,,,
07.150,2.742796283,,,
07.152,2.865186753,,,
07.154,2.930461671,,,
07.156,3.093648965,,,
07.158,2.96309913,,,
07.160,2.783593106,,,
07.162,2.506174706,,,
07.164,2.326668683,,,
07.166,2.677521365,,,
07.168,2.68568073,,,
07.170,2.710158824,,,
07.172,2.914142941,,,
07.174,2.922302306,,,
07.176,3.158923883,,,
07.178,3.069170871,,,
07.180,2.840708659,,,
07.182,2.587768353,,,
07.184,2.416421694,,,
07.186,2.701999459,,,
07.188,2.742796283,,,
07.190,2.8080712,,,
07.192,2.930461671,,,
07.194,2.96309913,,,
07.196,3.24051753,,,
07.198,3.142605153,,,
07.200,3.036533412,,,
07.202,2.612246447,,,
07.204,2.571449624,,,
07.206,2.791752471,,,
07.208,2.799911836,,,
07.210,2.873346118,,,
07.212,2.979417859,,,
07.214,3.012055318,,,
07.216,3.346589271,,,
07.218,3.207880071,,,
07.220,3.052852141,,,
07.222,2.661202636,,,
07.224,2.718318189,,,
07.226,2.865186753,,,
07.228,2.889664847,,,
07.230,3.028374047,,,
07.232,3.126286424,,,
07.234,3.2241988,,,
07.236,3.305792447,,,
07.238,3.207880071,,,
07.240,3.109967694,,,
07.242,2.857027389,,,
07.244,2.857027389,,,
07.246,3.012055318,,,
07.248,3.020214683,,,
07.250,3.061011506,,,
07.252,3.289473718,,,
07.254,3.37922673,,,
07.256,3.615848306,,,
07.258,3.346589271,,,
07.260,3.305792447,,,
07.262,2.905983577,,,
07.264,3.10180833,,,
07.266,3.126286424,,,
07.268,3.191561341,,,
07.270,3.281314353,,,
07.272,3.362908,,,
07.274,3.468979741,,,
07.276,3.672963859,,,
07.278,3.460820377,,,
07.280,3.362908,,,
07.282,3.126286424,,,
07.284,3.191561341,,,
07.286,3.232358165,,,
07.288,3.322111177,,,
07.290,3.362908,,,
07.292,3.460820377,,,
07.294,3.566892118,,,
07.296,3.713760683,,,
07.298,3.509776565,,,
07.300,3.346589271,,,
07.302,2.9467804,,,
07.304,3.134445788,,,
07.306,3.183401977,,,
07.308,3.273154988,,,
07.310,3.273154988,,,
07.312,3.362908,,,
07.314,3.477139106,,,
07.316,3.542414024,,,
07.318,3.330270541,,,
07.320,3.175242612,,,
07.322,2.767274377,,,
07.324,2.881505483,,,
07.326,3.003895953,,,
07.328,3.036533412,,,
07.330,3.142605153,,,
07.332,3.232358165,,,
07.334,3.264995624,,,
07.336,3.411864188,,,
07.338,3.142605153,,,
07.340,2.938621036,,,
07.342,2.677521365,,,
07.344,2.816230565,,,
07.346,2.857027389,,,
07.348,2.799911836,,,
07.350,2.914142941,,,
07.352,3.061011506,,,
07.354,3.289473718,,,
07.356,3.24051753,,,
07.358,3.012055318,,,
07.360,2.816230565,,,
07.362,2.481696612,,,
07.364,2.767274377,,,
07.366,2.816230565,,,
07.368,2.930461671,,,
07.370,3.061011506,,,
07.372,3.069170871,,,
07.374,3.289473718,,,
07.376,3.216039436,,,
07.378,2.971258494,,,
07.380,2.775433741,,,
07.382,2.522493436,,,
07.384,2.8080712,,,
07.386,2.816230565,,,
07.388,2.857027389,,,
07.390,3.036533412,,,
07.392,3.020214683,,,
07.394,3.216039436,,,
07.396,3.273154988,,,
07.398,3.167083247,,,
07.400,2.905983577,,,
07.402,2.498015342,,,
07.404,2.767274377,,,
07.406,2.857027389,,,
07.408,2.857027389,,,
07.410,3.028374047,,,
07.412,3.061011506,,,
07.414,3.330270541,,,
07.416,3.248676894,,,
07.418,3.069170871,,,
07.420,2.832549294,,,
07.422,2.628565177,,,
07.424,2.8080712,,,
07.426,2.832549294,,,
07.428,2.930461671,,,
07.430,3.10180833,,,
07.432,3.118127059,,,
07.434,3.371067365,,,
07.436,3.264995624,,,
07.438,3.077330236,,,
07.440,2.8080712,,,
07.442,2.522493436,,,
07.444,2.848868024,,,
07.446,2.897824212,,,
07.448,2.96309913,,,
07.450,3.044692777,,,
07.452,3.0854896,,,
07.454,3.428182918,,,
07.456,3.199720706,,,
07.458,3.036533412,,,
07.460,2.799911836,,,
07.462,2.571449624,,,
07.464,2.816230565,,,
07.466,2.857027389,,,
07.468,3.003895953,,,
07.470,2.995736589,,,
07.472,3.044692777,,,
07.474,3.313951812,,,
07.476,3.273154988,,,
07.478,3.020214683,,,
07.480,2.726477553,,,
07.482,2.653043271,,,
07.484,2.897824212,,,
07.486,2.840708659,,,
07.488,2.881505483,,,
07.490,3.0854896,,,
07.492,3.012055318,,,
07.494,3.5016172,,,
07.496,3.248676894,,,
07.498,3.052852141,,,
07.500,2.750955647,,,
07.502,2.693840094,,,
07.504,2.96309913,,,
07.506,2.954939765,,,
07.508,2.995736589,,,
07.510,3.093648965,,,
07.512,3.142605153,,,
07.514,3.444501647,,,
07.516,3.264995624,,,
07.518,3.167083247,,,
07.520,2.816230565,,,
07.522,2.881505483,,,
07.524,2.96309913,,,
07.526,2.848868024,,,
07.528,3.012055318,,,
07.530,3.191561341,,,
07.532,3.191561341,,,
07.534,3.477139106,,,
07.536,3.207880071,,,
07.538,3.118127059,,,
07.540,2.759115012,,,
07.542,2.783593106,,,
07.544,2.979417859,,,
07.546,2.96309913,,,
07.548,3.028374047,,,
07.550,3.134445788,,,
07.552,3.191561341,,,
07.554,3.37922673,,,
07.556,3.24051753,,,
07.558,3.158923883,,,
07.560,2.710158824,,,
07.562,2.734636918,,,
07.564,2.905983577,,,
07.566,2.979417859,,,
07.568,3.077330236,,,
07.570,3.175242612,,,
07.572,3.199720706,,,
07.574,3.428182918,,,
07.576,3.273154988,,,
07.578,3.134445788,,,
07.580,2.734636918,,,
07.582,2.889664847,,,
07.584,2.922302306,,,
07.586,2.9467804,,,
07.588,2.9467804,,,
07.590,3.232358165,,,
07.592,3.371067365,,,
07.594,3.452661012,,,
07.596,3.273154988,,,
07.598,3.216039436,,,
07.600,2.783593106,,,
07.602,2.938621036,,,
07.604,2.9467804,,,
07.606,3.036533412,,,
07.608,3.183401977,,,
07.610,3.24051753,,,
07.612,3.330270541,,,
07.614,3.452661012,,,
07.616,3.191561341,,,
07.618,3.118127059,,,
07.620,2.82438993,,,
07.622,2.954939765,,,
07.624,3.077330236,,,
07.626,3.061011506,,,
07.628,3.216039436,,,
07.630,3.305792447,,,
07.632,3.37922673,,,
07.634,3.485298471,,,
07.636,3.297633083,,,
07.638,3.142605153,,,
07.640,2.857027389,,,
07.642,2.995736589,,,
07.644,2.979417859,,,
07.646,3.126286424,,,
07.648,3.322111177,,,
07.650,3.313951812,,,
07.652,3.485298471,,,
07.654,3.493457835,,,
07.656,3.371067365,,,
07.658,3.10180833,,,
07.660,2.742796283,,,
07.662,3.036533412,,,
07.664,3.134445788,,,
07.666,3.273154988,,,
07.668,3.371067365,,,
07.670,3.387386094,,,
07.672,3.51793593,,,
07.674,3.575051483,,,
07.676,3.403704824,,,
07.678,3.191561341,,,
07.680,2.9467804,,,
07.682,3.158923883,,,
07.684,3.199720706,,,
07.686,3.24051753,,,
07.688,3.387386094,,,
07.690,3.468979741,,,
07.692,3.664804494,,,
07.694,3.664804494,,,
07.696,3.468979741,,,
07.698,3.199720706,,,
07.700,2.938621036,,,
07.702,3.207880071,,,
07.704,3.248676894,,,
07.706,3.281314353,,,
07.708,3.411864188,,,
07.710,3.403704824,,,
07.712,3.664804494,,,
07.714,3.583210847,,,
07.716,3.420023553,,,
07.718,3.126286424,,,
07.720,2.848868024,,,
07.722,3.134445788,,,
07.724,3.142605153,,,
07.726,3.24051753,,,
07.728,3.297633083,,,
07.730,3.289473718,,,
07.732,3.566892118,,,
07.734,3.493457835,,,
07.736,3.273154988,,,
07.738,2.979417859,,,
07.740,2.799911836,,,
07.742,3.077330236,,,
07.744,3.077330236,,,
07.746,3.207880071,,,
07.748,3.207880071,,,
07.750,3.330270541,,,
07.752,3.591370212,,,
07.754,3.51793593,,,
07.756,3.289473718,,,
07.758,3.020214683,,,
07.760,2.750955647,,,
07.762,3.044692777,,,
07.764,3.028374047,,,
07.766,3.109967694,,,
07.768,3.37922673,,,
07.770,3.256836259,,,
07.772,3.607688941,,,
07.774,3.436342283,,,
07.776,3.232358165,,,
07.778,2.922302306,,,
07.780,2.799911836,,,
07.782,2.995736589,,,
07.784,3.044692777,,,
07.786,3.052852141,,,
07.788,3.167083247,,,
07.790,3.142605153,,,
07.792,3.452661012,,,
07.794,3.387386094,,,
07.796,3.10180833,,,
07.798,2.628565177,,,
07.800,2.775433741,,,
07.802,2.857027389,,,
07.804,3.012055318,,,
07.806,3.248676894,,,
07.808,3.387386094,,,
07.810,3.583210847,,,
07.812,4.138047647,,,
07.814,4.276756847,,,
07.816,4.366509859,,,
07.818,4.293075577,,,
07.820,4.399147318,,,
07.822,4.660246988,,,
07.824,4.603131435,,,
07.826,4.701043812,,,
07.828,4.733681271,,,
07.830,4.75,,,
07.832,4.733681271,,,
07.834,4.448103506,,,
07.836,4.07277273,,,
07.838,3.583210847,,,
07.840,3.436342283,,,
07.842,3.297633083,,,
07.844,3.10180833,,,
07.846,3.150764518,,,
07.848,3.305792447,,,
07.850,3.289473718,,,
07.852,3.5016172,,,
07.854,3.191561341,,,
07.856,3.052852141,,,
07.858,2.742796283,,,
07.860,2.767274377,,,
07.862,2.922302306,,,
07.864,2.914142941,,,
07.866,2.9467804,,,
07.868,3.158923883,,,
07.870,3.216039436,,,
07.872,3.403704824,,,
07.874,3.24051753,,,
07.876,3.2241988,,,
07.878,2.832549294,,,
07.880,2.914142941,,,
07.882,3.0854896,,,
07.884,3.10180833,,,
07.886,3.191561341,,,
07.888,3.305792447,,,
07.890,3.444501647,,,
07.892,3.558732753,,,
07.894,3.289473718,,,
07.896,3.134445788,,,
07.898,2.922302306,,,
07.900,2.995736589,,,
07.902,3.093648965,,,
07.904,3.077330236,,,
07.906,3.142605153,,,
07.908,3.297633083,,,
07.910,3.550573388,,,
07.912,3.509776565,,,
07.914,3.313951812,,,
07.916,3.191561341,,,
07.918,2.873346118,,,
07.920,3.028374047,,,
07.922,3.0854896,,,
07.924,3.199720706,,,
07.926,3.232358165,,,
07.928,3.305792447,,,
07.930,3.51793593,,,
07.932,3.615848306,,,
07.934,3.411864188,,,
07.936,3.150764518,,,
07.938,2.922302306,,,
07.940,3.069170871,,,
07.942,3.167083247,,,
07.944,3.150764518,,,
07.946,3.330270541,,,
07.948,3.354748636,,,
07.950,3.558732753,,,
07.952,3.51793593,,,
07.954,3.371067365,,,
07.956,3.24051753,,,
07.958,2.971258494,,,
07.960,3.142605153,,,
07.962,3.199720706,,,
07.964,3.167083247,,,
07.966,3.313951812,,,
07.968,3.371067365,,,
07.970,3.624007671,,,
07.972,3.648485765,,,
07.974,3.468979741,,,
07.976,3.183401977,,,
07.978,3.020214683,,,
07.980,3.24051753,,,
07.982,3.158923883,,,
07.984,3.2241988,,,
07.986,3.452661012,,,
07.988,3.395545459,,,
07.990,3.689282588,,,
07.992,3.705601318,,,
07.994,3.403704824,,,
07.996,3.134445788,,,
07.998,2.954939765,,,
08.000,3.2241988,,,
08.002,3.256836259,,,
08.004,3.273154988,,,
08.006,3.509776565,,,
08.008,3.485298471,,,
08.010,3.664804494,,,
08.012,3.672963859,,,
08.014,3.493457835,,,
08.016,3.248676894,,,
08.018,3.028374047,,,
08.020,3.273154988,,,
08.022,3.346589271,,,
08.024,3.468979741,,,
08.026,3.436342283,,,
08.028,3.452661012,,,
08.030,3.803513694,,,
08.032,3.746398141,,,
08.034,3.534254659,,,
08.036,3.37922673,,,
08.038,3.134445788,,,
08.040,3.37922673,,,
08.042,3.354748636,,,
08.044,3.460820377,,,
08.046,3.607688941,,,
08.048,3.65664513,,,
08.050,3.925904165,,,
08.052,3.844310518,,,
08.054,3.615848306,,,
08.056,3.330270541,,,
08.058,3.142605153,,,
08.060,3.460820377,,,
08.062,3.436342283,,,
08.064,3.526095294,,,
08.066,3.689282588,,,
08.068,3.672963859,,,
08.070,3.983019718,,,
08.072,3.844310518,,,
08.074,3.6403264,,,
08.076,3.346589271,,,
08.078,3.158923883,,,
08.080,3.428182918,,,
08.082,3.395545459,,,
08.084,3.51793593,,,
08.086,3.615848306,,,
08.088,3.493457835,,,
08.090,3.7790356,,,
08.092,3.689282588,,,
08.094,3.509776565,,,
08.096,3.077330236,,,
08.098,3.036533412,,,
08.100,3.2241988,,,
08.102,3.232358165,,,
08.104,3.167083247,,,
08.106,3.37922673,,,
08.108,3.330270541,,,
08.110,3.558732753,,,
08.112,3.395545459,,,
08.114,3.256836259,,,
08.116,2.914142941,,,
08.118,2.857027389,,,
08.120,2.954939765,,,
08.122,3.028374047,,,
08.124,3.10180833,,,
08.126,3.167083247,,,
08.128,3.199720706,,,
08.130,3.436342283,,,
08.132,3.330270541,,,
08.134,3.199720706,,,
08.136,2.783593106,,,
08.138,2.840708659,,,
08.140,2.971258494,,,
08.142,2.922302306,,,
08.144,3.028374047,,,
08.146,3.158923883,,,
08.148,3.134445788,,,
08.150,3.452661012,,,
08.152,3.2241988,,,
08.154,3.077330236,,,
08.156,2.734636918,,,
08.158,2.718318189,,,
08.160,2.922302306,,,
08.162,2.922302306,,,
08.164,3.069170871,,,
08.166,3.175242612,,,
08.168,3.281314353,,,
08.170,3.403704824,,,
08.172,3.256836259,,,
08.174,3.10180833,,,
08.176,2.68568073,,,
08.178,2.734636918,,,
08.180,2.881505483,,,
08.182,2.922302306,,,
08.184,2.905983577,,,
08.186,3.0854896,,,
08.188,3.199720706,,,
08.190,3.387386094,,,
08.192,3.175242612,,,
08.194,3.126286424,,,
08.196,2.726477553,,,
08.198,2.816230565,,,
08.200,2.938621036,,,
08.202,2.897824212,,,
08.204,3.028374047,,,
08.206,3.118127059,,,
08.208,3.289473718,,,
08.210,3.346589271,,,
08.212,3.077330236,,,
08.214,3.061011506,,,
08.216,2.767274377,,,
08.218,2.840708659,,,
08.220,2.897824212,,,
08.222,2.938621036,,,
08.224,3.0854896,,,
08.226,3.256836259,,,
08.228,3.403704824,,,
08.230,3.330270541,,,
08.232,3.199720706,,,
08.234,2.995736589,,,
08.236,2.799911836,,,
08.238,3.012055318,,,
08.240,3.012055318,,,
08.242,3.036533412,,,
08.244,3.150764518,,,
08.246,3.142605153,,,
08.248,3.387386094,,,
08.250,3.395545459,,,
08.252,3.2241988,,,
08.254,3.036533412,,,
08.256,2.701999459,,,
08.258,2.905983577,,,
08.260,3.012055318,,,
08.262,3.052852141,,,
08.264,3.24051753,,,
08.266,3.2241988,,,
08.268,3.485298471,,,
08.270,3.411864188,,,
08.272,3.167083247,,,
08.274,2.979417859,,,
08.276,2.718318189,,,
08.278,2.922302306,,,
08.280,3.028374047,,,
08.282,3.003895953,,,
08.284,3.183401977,,,
08.286,3.256836259,,,
08.288,3.485298471,,,
08.290,3.444501647,,,
08.292,3.273154988,,,
08.294,3.061011506,,,
08.296,2.767274377,,,
08.298,3.028374047,,,
08.300,3.077330236,,,
08.302,3.061011506,,,
08.304,3.24051753,,,
08.306,3.24051753,,,
08.308,3.550573388,,,
08.310,3.444501647,,,
08.312,3.248676894,,,
08.314,3.003895953,,,
08.316,2.816230565,,,
08.318,3.012055318,,,
08.320,2.971258494,,,
08.322,3.069170871,,,
08.324,3.2241988,,,
08.326,3.264995624,,,
08.328,3.526095294,,,
08.330,3.468979741,,,
08.332,3.207880071,,,
08.334,2.9467804,,,
08.336,2.677521365,,,
08.338,3.044692777,,,
08.340,2.96309913,,,
08.342,3.020214683,,,
08.344,3.109967694,,,
08.346,3.216039436,,,
08.348,3.534254659,,,
08.350,3.420023553,,,
08.352,3.167083247,,,
08.354,2.857027389,,,
08.356,2.710158824,,,
08.358,2.979417859,,,
08.360,2.954939765,,,
08.362,3.044692777,,,
08.364,3.126286424,,,
08.366,3.175242612,,,
08.368,3.5016172,,,
08.370,3.387386094,,,
08.372,3.2241988,,,
08.374,2.897824212,,,
08.376,2.734636918,,,
08.378,2.954939765,,,
08.380,2.971258494,,,
08.382,3.036533412,,,
08.384,3.207880071,,,
08.386,3.305792447,,,
08.388,3.534254659,,,
08.390,3.387386094,,,
08.392,3.273154988,,,
08.394,2.889664847,,,
08.396,2.767274377,,,
08.398,2.938621036,,,
08.400,2.954939765,,,
08.402,3.061011506,,,
08.404,3.191561341,,,
08.406,3.167083247,,,
08.408,3.485298471,,,
08.410,3.37922673,,,
08.412,3.183401977,,,
08.414,2.816230565,,,
08.416,2.799911836,,,
08.418,2.995736589,,,
08.420,2.930461671,,,
08.422,3.077330236,,,
08.424,3.183401977,,,
08.426,3.2241988,,,
08.428,3.5016172,,,
08.430,3.281314353,,,
08.432,3.207880071,,,
08.434,2.832549294,,,
08.436,2.848868024,,,
08.438,2.9467804,,,
08.440,3.052852141,,,
08.442,3.069170871,,,
08.444,3.207880071,,,
08.446,3.256836259,,,
08.448,3.420023553,,,
08.450,3.256836259,,,
08.452,3.167083247,,,
08.454,2.742796283,,,
08.456,2.840708659,,,
08.458,2.9467804,,,
08.460,3.069170871,,,
08.462,3.10180833,,,
08.464,3.158923883,,,
08.466,3.264995624,,,
08.468,3.452661012,,,
08.470,3.330270541,,,
08.472,3.167083247,,,
08.474,2.661202636,,,
08.476,2.791752471,,,
08.478,3.036533412,,,
08.480,3.003895953,,,
08.482,3.036533412,,,
08.484,3.216039436,,,
08.486,3.362908,,,
08.488,3.420023553,,,
08.490,3.126286424,,,
08.492,3.0854896,,,
08.494,2.718318189,,,
08.496,2.881505483,,,
08.498,2.9467804,,,
08.500,3.020214683,,,