Time (s),Signal (V),Peak Time (s),Sample #,Type
00.000,2.190566453,00.766,383,N
00.002,2.139884601,00.968,484,t
00.004,2.241248306,01.546,773,N
00.006,2.127214138,01.772,886,t
00.008,2.507328031,02.344,1172,N
00.010,3.039487481,02.570,1285,t
00.012,2.735396367,03.146,1573,N
00.014,2.469316642,03.380,1690,t
00.016,2.58335081,03.892,1946,N
00.018,2.874771461,04.102,2051,t
00.020,2.608691736,04.606,2303,N
00.022,2.456646178,04.818,2409,t
00.024,2.3806234,05.324,2662,N
00.026,2.532668957,05.548,2774,t
00.028,2.786078219,06.062,3031,N
00.030,3.039487481,06.272,3136,t
00.032,2.684714514,06.858,3429,N
00.034,2.418634789,07.082,3541,t
00.036,2.355282474,07.678,3839,N
00.038,2.355282474,07.904,3952,t
00.040,2.443975715,,,
00.042,2.393293863,,,
00.044,2.481987105,,,
00.046,2.596021273,,,
00.048,2.798748682,,,
00.050,2.697384977,,,
00.052,2.570680346,,,
00.054,2.342612011,,,
00.056,2.367952937,,,
00.058,2.443975715,,,
00.060,2.646703125,,,
00.062,2.786078219,,,
00.064,2.684714514,,,
00.066,2.760737293,,,
00.068,2.608691736,,,
00.070,2.621362199,,,
00.072,2.710055441,,,
00.074,2.634032662,,,
00.076,2.431305252,,,
00.078,2.3806234,,,
00.080,2.253918769,,,
00.082,2.507328031,,,
00.084,2.773407756,,,
00.086,2.91278285,,,
00.088,3.026817018,,,
00.090,2.91278285,,,
00.092,2.697384977,,,
00.094,2.621362199,,,
00.096,2.697384977,,,
00.098,2.58335081,,,
00.100,2.621362199,,,
00.102,2.608691736,,,
00.104,2.798748682,,,
00.106,2.950794239,,,
00.108,2.760737293,,,
00.110,2.494657568,,,
00.112,2.494657568,,,
00.114,2.494657568,,,
00.116,2.317271084,,,
00.118,2.608691736,,,
00.120,3.064828407,,,
00.122,2.697384977,,,
00.124,2.887441924,,,
00.126,3.026817018,,,
00.128,2.963464703,,,
00.130,2.887441924,,,
00.132,2.786078219,,,
00.134,2.887441924,,,
00.136,2.836760072,,,
00.138,2.735396367,,,
00.140,2.773407756,,,
00.142,2.646703125,,,
00.144,2.722725904,,,
00.146,2.91278285,,,
00.148,3.014146555,,,
00.150,2.963464703,,,
00.152,2.887441924,,,
00.154,2.824089608,,,
00.156,2.760737293,,,
00.158,2.735396367,,,
00.160,2.824089608,,,
00.162,3.064828407,,,
00.164,3.191533038,,,
00.166,3.166192112,,,
00.168,3.330908133,,,
00.170,3.368919522,,,
00.172,3.204203502,,,
00.174,3.178862575,,,
00.176,2.950794239,,,
00.178,2.900112387,,,
00.180,3.052157944,,,
00.182,3.356249059,,,
00.184,3.204203502,,,
00.186,2.976135166,,,
00.188,2.988805629,,,
00.190,3.216873965,,,
00.192,3.64766971,,,
00.194,3.533635542,,,
00.196,3.166192112,,,
00.198,3.07749887,,,
00.200,3.191533038,,,
00.202,3.242214891,,,
00.204,3.204203502,,,
00.206,3.07749887,,,
00.208,3.368919522,,,
00.210,3.432271837,,,
00.212,3.140851186,,,
00.214,3.204203502,,,
00.216,3.267555817,,,
00.218,3.267555817,,,
00.220,3.140851186,,,
00.222,3.140851186,,,
00.224,3.191533038,,,
00.226,3.242214891,,,
00.228,3.128180723,,,
00.230,2.925453313,,,
00.232,2.887441924,,,
00.234,2.836760072,,,
00.236,2.634032662,,,
00.238,2.722725904,,,
00.240,3.102839797,,,
00.242,3.026817018,,,
00.244,2.824089608,,,
00.246,2.862100998,,,
00.248,2.811419145,,,
00.250,2.887441924,,,
00.252,2.735396367,,,
00.254,2.507328031,,,
00.256,2.291930158,,,
00.258,2.3806234,,,
00.260,2.672044051,,,
00.262,2.811419145,,,
00.264,2.849430535,,,
00.266,2.824089608,,,
00.268,2.811419145,,,
00.270,2.608691736,,,
00.272,2.532668957,,,
00.274,2.3806234,,,
00.276,2.063861822,,,
00.278,2.443975715,,,
00.280,2.659373588,,,
00.282,2.634032662,,,
00.284,2.634032662,,,
00.286,2.58335081,,,
00.288,2.481987105,,,
00.290,2.507328031,,,
00.292,2.342612011,,,
00.294,2.063861822,,,
00.296,2.152555064,,,
00.298,2.596021273,,,
00.300,2.900112387,,,
00.302,2.570680346,,,
00.304,2.646703125,,,
00.306,2.54533942,,,
00.308,2.431305252,,,
00.310,2.519998494,,,
00.312,2.558009883,,,
00.314,2.367952937,,,
00.316,2.266589232,,,
00.318,2.266589232,,,
00.320,2.279259695,,,
00.322,2.17789599,,,
00.324,2.431305252,,,
00.326,2.836760072,,,
00.328,2.710055441,,,
00.330,2.621362199,,,
00.332,2.558009883,,,
00.334,2.431305252,,,
00.336,2.405964326,,,
00.338,2.367952937,,,
00.340,2.203236916,,,
00.342,2.3806234,,,
00.344,2.58335081,,,
00.346,2.634032662,,,
00.348,2.646703125,,,
00.350,2.54533942,,,
00.352,2.342612011,,,
00.354,2.253918769,,,
00.356,2.405964326,,,
00.358,2.481987105,,,
00.360,2.367952937,,,
00.362,2.570680346,,,
00.364,2.481987105,,,
00.366,2.443975715,,,
00.368,2.507328031,,,
00.370,2.507328031,,,
00.372,2.507328031,,,
00.374,2.431305252,,,
00.376,2.253918769,,,
00.378,2.17789599,,,
00.380,2.456646178,,,
00.382,2.735396367,,,
00.384,2.608691736,,,
00.386,2.722725904,,,
00.388,2.811419145,,,
00.390,2.519998494,,,
00.392,2.114543675,,,
00.394,1.949827654,,,
00.396,2.051191359,,,
00.398,2.54533942,,,
00.400,2.786078219,,,
00.402,2.672044051,,,
00.404,2.773407756,,,
00.406,2.684714514,,,
00.408,2.634032662,,,
00.410,2.54533942,,,
00.412,2.266589232,,,
00.414,2.152555064,,,
00.416,2.253918769,,,
00.418,2.329941547,,,
00.420,2.405964326,,,
00.422,2.481987105,,,
00.424,2.405964326,,,
00.426,2.456646178,,,
00.428,2.443975715,,,
00.430,2.697384977,,,
00.432,2.494657568,,,
00.434,2.418634789,,,
00.436,2.3806234,,,
00.438,2.355282474,,,
00.440,2.253918769,,,
00.442,2.469316642,,,
00.444,2.634032662,,,
00.446,2.558009883,,,
00.448,2.532668957,,,
00.450,2.570680346,,,
00.452,2.241248306,,,
00.454,2.203236916,,,
00.456,2.266589232,,,
00.458,2.266589232,,,
00.460,2.355282474,,,
00.462,2.507328031,,,
00.464,2.393293863,,,
00.466,2.329941547,,,
00.468,2.735396367,,,
00.470,2.507328031,,,
00.472,2.279259695,,,
00.474,2.329941547,,,
00.476,2.317271084,,,
00.478,2.241248306,,,
00.480,2.304600621,,,
00.482,2.443975715,,,
00.484,2.431305252,,,
00.486,2.519998494,,,
00.488,2.3806234,,,
00.490,2.570680346,,,
00.492,2.355282474,,,
00.494,2.21590738,,,
00.496,2.317271084,,,
00.498,2.393293863,,,
00.500,2.418634789,,,
00.502,2.570680346,,,
00.504,2.54533942,,,
00.506,2.558009883,,,
00.508,2.54533942,,,
00.510,2.481987105,,,
00.512,2.038520896,,,
00.514,2.17789599,,,
00.516,2.241248306,,,
00.518,2.228577843,,,
00.520,2.3806234,,,
00.522,2.481987105,,,
00.524,2.456646178,,,
00.526,2.431305252,,,
00.528,2.54533942,,,
00.530,2.393293863,,,
00.532,2.01317997,,,
00.534,2.152555064,,,
00.536,2.342612011,,,
00.538,2.456646178,,,
00.540,2.342612011,,,
00.542,2.393293863,,,
00.544,2.58335081,,,
00.546,2.469316642,,,
00.548,2.481987105,,,
00.550,2.266589232,,,
00.552,2.076532285,,,
00.554,2.317271084,,,
00.556,2.3806234,,,
00.558,2.469316642,,,
00.560,2.342612011,,,
00.562,2.469316642,,,
00.564,2.684714514,,,
00.566,2.596021273,,,
00.568,2.3806234,,,
00.570,2.367952937,,,
00.572,2.342612011,,,
00.574,2.317271084,,,
00.576,2.329941547,,,
00.578,2.228577843,,,
00.580,2.355282474,,,
00.582,2.367952937,,,
00.584,2.469316642,,,
00.586,2.672044051,,,
00.588,2.558009883,,,
00.590,2.418634789,,,
00.592,2.304600621,,,
00.594,2.000509507,,,
00.596,1.81045256,,,
00.598,2.17789599,,,
00.600,2.773407756,,,
00.602,2.798748682,,,
00.604,2.798748682,,,
00.606,2.925453313,,,
00.608,2.710055441,,,
00.610,2.608691736,,,
00.612,2.507328031,,,
00.614,2.342612011,,,
00.616,2.405964326,,,
00.618,2.519998494,,,
00.620,2.494657568,,,
00.622,2.532668957,,,
00.624,2.608691736,,,
00.626,2.558009883,,,
00.628,2.710055441,,,
00.630,2.519998494,,,
00.632,2.405964326,,,
00.634,2.431305252,,,
00.636,2.469316642,,,
00.638,2.355282474,,,
00.640,2.443975715,,,
00.642,2.532668957,,,
00.644,2.507328031,,,
00.646,2.672044051,,,
00.648,2.3806234,,,
00.650,1.975168581,,,
00.652,1.81045256,,,
00.654,2.089202749,,,
00.656,2.634032662,,,
00.658,2.722725904,,,
00.660,2.558009883,,,
00.662,2.507328031,,,
00.664,2.431305252,,,
00.666,2.418634789,,,
00.668,2.456646178,,,
00.670,2.443975715,,,
00.672,2.405964326,,,
00.674,2.152555064,,,
00.676,2.203236916,,,
00.678,2.355282474,,,
00.680,2.355282474,,,
00.682,2.469316642,,,
00.684,2.342612011,,,
00.686,2.190566453,,,
00.688,2.3806234,,,
00.690,2.203236916,,,
00.692,1.975168581,,,
00.694,1.975168581,,,
00.696,2.21590738,,,
00.698,2.165225527,,,
00.700,2.431305252,,,
00.702,2.481987105,,,
00.704,2.507328031,,,
00.706,2.418634789,,,
00.708,2.253918769,,,
00.710,2.228577843,,,
00.712,2.266589232,,,
00.714,2.507328031,,,
00.716,2.355282474,,,
00.718,2.051191359,,,
00.720,1.937157191,,,
00.722,2.405964326,,,
00.724,2.58335081,,,
00.726,2.456646178,,,
00.728,2.241248306,,,
00.730,2.127214138,,,
00.732,2.038520896,,,
00.734,2.291930158,,,
00.736,2.279259695,,,
00.738,1.84846395,,,
00.740,2.089202749,,,
00.742,2.558009883,,,
00.744,2.54533942,,,
00.746,2.58335081,,,
00.748,2.773407756,,,
00.750,2.786078219,,,
00.752,2.950794239,,,
00.754,3.216873965,,,
00.756,3.520965079,,,
00.758,3.64766971,,,
00.760,3.989772214,,,
00.762,4.319204255,,,
00.764,4.661306758,,,
00.766,4.661306758,,,
00.768,4.572613517,,,
00.770,4.205170087,,,
00.772,3.951760825,,,
00.774,3.571646931,,,
00.776,3.28022628,,,
00.778,3.014146555,,,
00.780,2.570680346,,,
00.782,2.291930158,,,
00.784,2.165225527,,,
00.786,2.203236916,,,
00.788,2.431305252,,,
00.790,2.063861822,,,
00.792,2.01317997,,,
00.794,2.127214138,,,
00.796,2.127214138,,,
00.798,2.228577843,,,
00.800,2.3806234,,,
00.802,2.532668957,,,
00.804,2.532668957,,,
00.806,2.190566453,,,
00.808,2.101873212,,,
00.810,2.127214138,,,
00.812,1.899145802,,,
00.814,2.304600621,,,
00.816,2.507328031,,,
00.818,2.469316642,,,
00.820,2.418634789,,,
00.822,2.494657568,,,
00.824,2.519998494,,,
00.826,2.393293863,,,
00.828,2.329941547,,,
00.830,2.190566453,,,
00.832,2.114543675,,,
00.834,1.911816265,,,
00.836,2.152555064,,,
00.838,2.621362199,,,
00.840,2.659373588,,,
00.842,2.634032662,,,
00.844,2.672044051,,,
00.846,2.570680346,,,
00.848,2.3806234,,,
00.850,2.329941547,,,
00.852,2.355282474,,,
00.854,2.431305252,,,
00.856,2.304600621,,,
00.858,2.405964326,,,
00.860,2.558009883,,,
00.862,2.469316642,,,
00.864,2.127214138,,,
00.866,2.127214138,,,
00.868,2.697384977,,,
00.870,2.469316642,,,
00.872,2.418634789,,,
00.874,2.393293863,,,
00.876,2.443975715,,,
00.878,2.317271084,,,
00.880,2.203236916,,,
00.882,2.418634789,,,
00.884,2.646703125,,,
00.886,2.621362199,,,
00.888,2.494657568,,,
00.890,2.3806234,,,
00.892,2.418634789,,,
00.894,2.342612011,,,
00.896,2.481987105,,,
00.898,2.519998494,,,
00.900,2.596021273,,,
00.902,2.659373588,,,
00.904,2.672044051,,,
00.906,2.634032662,,,
00.908,2.431305252,,,
00.910,2.431305252,,,
00.912,2.367952937,,,
00.914,2.21590738,,,
00.916,2.621362199,,,
00.918,2.836760072,,,
00.920,2.900112387,,,
00.922,2.786078219,,,
00.924,2.824089608,,,
00.926,2.824089608,,,
00.928,2.596021273,,,
00.930,2.481987105,,,
00.932,2.469316642,,,
00.934,2.507328031,,,
00.936,2.570680346,,,
00.938,2.646703125,,,
00.940,2.494657568,,,
00.942,2.862100998,,,
00.944,2.976135166,,,
00.946,3.001476092,,,
00.948,2.786078219,,,
00.950,2.596021273,,,
00.952,2.596021273,,,
00.954,2.519998494,,,
00.956,2.672044051,,,
00.958,2.938123776,,,
00.960,2.811419145,,,
00.962,3.318237669,,,
00.964,3.343578596,,,
00.966,3.216873965,,,
00.968,3.039487481,,,
00.970,2.938123776,,,
00.972,2.988805629,,,
00.974,2.824089608,,,
00.976,2.900112387,,,
00.978,2.988805629,,,
00.980,3.102839797,,,
00.982,3.242214891,,,
00.984,3.191533038,,,
00.986,3.153521649,,,
00.988,3.001476092,,,
00.990,2.836760072,,,
00.992,2.798748682,,,
00.994,2.976135166,,,
00.996,2.773407756,,,
00.998,2.74806683,,,
01.000,2.976135166,,,
01.002,3.039487481,,,
01.004,3.07749887,,,
01.006,3.140851186,,,
01.008,2.874771461,,,
01.010,2.824089608,,,
01.012,2.710055441,,,
01.014,2.431305252,,,
01.016,2.519998494,,,
01.018,2.988805629,,,
01.020,3.052157944,,,
01.022,3.052157944,,,
01.024,2.91278285,,,
01.026,2.684714514,,,
01.028,2.532668957,,,
01.030,2.659373588,,,
01.032,2.58335081,,,
01.034,2.418634789,,,
01.036,2.152555064,,,
01.038,2.570680346,,,
01.040,2.722725904,,,
01.042,2.710055441,,,
01.044,2.608691736,,,
01.046,2.58335081,,,
01.048,2.418634789,,,
01.050,2.228577843,,,
01.052,2.038520896,,,
01.054,2.063861822,,,
01.056,2.317271084,,,
01.058,2.431305252,,,
01.060,2.367952937,,,
01.062,2.431305252,,,
01.064,2.456646178,,,
01.066,2.405964326,,,
01.068,2.114543675,,,
01.070,2.139884601,,,
01.072,2.203236916,,,
01.074,2.17789599,,,
01.076,2.253918769,,,
01.078,2.367952937,,,
01.080,2.329941547,,,
01.082,2.329941547,,,
01.084,2.367952937,,,
01.086,2.3806234,,,
01.088,2.342612011,,,
01.090,2.355282474,,,
01.092,2.291930158,,,
01.094,2.304600621,,,
01.096,2.279259695,,,
01.098,2.54533942,,,
01.100,2.443975715,,,
01.102,2.443975715,,,
01.104,2.3806234,,,
01.106,2.253918769,,,
01.108,2.266589232,,,
01.110,2.17789599,,,
01.112,1.949827654,,,
01.114,2.21590738,,,
01.116,2.139884601,,,
01.118,2.266589232,,,
01.120,2.431305252,,,
01.122,2.54533942,,,
01.124,2.329941547,,,
01.126,2.241248306,,,
01.128,2.329941547,,,
01.130,2.519998494,,,
01.132,2.17789599,,,
01.134,2.21590738,,,
01.136,2.241248306,,,
01.138,2.329941547,,,
01.140,2.54533942,,,
01.142,2.558009883,,,
01.144,2.418634789,,,
01.146,2.114543675,,,
01.148,2.317271084,,,
01.150,2.342612011,,,
01.152,2.228577843,,,
01.154,2.114543675,,,
01.156,2.152555064,,,
01.158,2.469316642,,,
01.160,2.659373588,,,
01.162,2.481987105,,,
01.164,2.469316642,,,
01.166,2.393293863,,,
01.168,2.393293863,,,
01.170,2.456646178,,,
01.172,2.266589232,,,
01.174,2.203236916,,,
01.176,2.418634789,,,
01.178,2.494657568,,,
01.180,2.507328031,,,
01.182,2.456646178,,,
01.184,2.279259695,,,
01.186,2.266589232,,,
01.188,2.405964326,,,
01.190,2.17789599,,,
01.192,2.063861822,,,
01.194,2.190566453,,,
01.196,2.291930158,,,
01.198,2.558009883,,,
01.200,2.634032662,,,
01.202,2.596021273,,,
01.204,2.456646178,,,
01.206,2.279259695,,,
01.208,2.228577843,,,
01.210,2.114543675,,,
01.212,2.165225527,,,
01.214,2.456646178,,,
01.216,2.469316642,,,
01.218,2.519998494,,,
01.220,2.481987105,,,
01.222,2.431305252,,,
01.224,2.241248306,,,
01.226,2.139884601,,,
01.228,2.253918769,,,
01.230,2.025850433,,,
01.232,2.000509507,,,
01.234,2.038520896,,,
01.236,2.253918769,,,
01.238,2.3806234,,,
01.240,2.570680346,,,
01.242,2.494657568,,,
01.244,2.241248306,,,
01.246,2.367952937,,,
01.248,2.367952937,,,
01.250,2.355282474,,,
01.252,2.17789599,,,
01.254,2.279259695,,,
01.256,2.443975715,,,
01.258,2.329941547,,,
01.260,2.519998494,,,
01.262,2.405964326,,,
01.264,2.241248306,,,
01.266,2.139884601,,,
01.268,2.279259695,,,
01.270,2.317271084,,,
01.272,2.241248306,,,
01.274,2.190566453,,,
01.276,2.228577843,,,
01.278,2.507328031,,,
01.280,2.329941547,,,
01.282,2.317271084,,,
01.284,2.190566453,,,
01.286,1.987839044,,,
01.288,2.17789599,,,
01.290,2.304600621,,,
01.292,2.076532285,,,
01.294,1.899145802,,,
01.296,2.190566453,,,
01.298,2.874771461,,,
01.300,2.621362199,,,
01.302,2.3806234,,,
01.304,2.393293863,,,
01.306,2.342612011,,,
01.308,2.190566453,,,
01.310,2.203236916,,,
01.312,2.266589232,,,
01.314,2.279259695,,,
01.316,2.342612011,,,
01.318,2.3806234,,,
01.320,2.481987105,,,
01.322,2.443975715,,,
01.324,2.114543675,,,
01.326,2.114543675,,,
01.328,2.190566453,,,
01.330,2.317271084,,,
01.332,2.279259695,,,
01.334,2.279259695,,,
01.336,2.355282474,,,
01.338,2.317271084,,,
01.340,2.228577843,,,
01.342,2.076532285,,,
01.344,2.21590738,,,
01.346,2.304600621,,,
01.348,2.342612011,,,
01.350,2.228577843,,,
01.352,2.317271084,,,
01.354,2.443975715,,,
01.356,2.481987105,,,
01.358,2.532668957,,,
01.360,2.431305252,,,
01.362,2.367952937,,,
01.364,2.241248306,,,
01.366,2.203236916,,,
01.368,2.228577843,,,
01.370,2.127214138,,,
01.372,2.342612011,,,
01.374,2.519998494,,,
01.376,2.54533942,,,
01.378,2.367952937,,,
01.380,2.279259695,,,
01.382,2.329941547,,,
01.384,2.456646178,,,
01.386,2.519998494,,,
01.388,2.621362199,,,
01.390,2.279259695,,,
01.392,2.304600621,,,
01.394,2.507328031,,,
01.396,2.735396367,,,
01.398,2.684714514,,,
01.400,2.646703125,,,
01.402,2.329941547,,,
01.404,2.114543675,,,
01.406,2.304600621,,,
01.408,2.291930158,,,
01.410,2.443975715,,,
01.412,2.54533942,,,
01.414,2.519998494,,,
01.416,2.456646178,,,
01.418,2.443975715,,,
01.420,2.393293863,,,
01.422,2.405964326,,,
01.424,2.418634789,,,
01.426,2.152555064,,,
01.428,1.861134413,,,
01.430,1.962498117,,,
01.432,2.165225527,,,
01.434,2.431305252,,,
01.436,2.494657568,,,
01.438,2.608691736,,,
01.440,2.418634789,,,
01.442,2.01317997,,,
01.444,1.924486728,,,
01.446,2.21590738,,,
01.448,2.139884601,,,
01.450,2.266589232,,,
01.452,2.431305252,,,
01.454,2.469316642,,,
01.456,2.3806234,,,
01.458,2.266589232,,,
01.460,2.190566453,,,
01.462,2.089202749,,,
01.464,2.203236916,,,
01.466,2.228577843,,,
01.468,2.21590738,,,
01.470,2.038520896,,,
01.472,2.253918769,,,
01.474,2.469316642,,,
01.476,2.443975715,,,
01.478,2.532668957,,,
01.480,2.393293863,,,
01.482,2.291930158,,,
01.484,2.165225527,,,
01.486,2.025850433,,,
01.488,2.114543675,,,
01.490,2.228577843,,,
01.492,2.203236916,,,
01.494,2.253918769,,,
01.496,2.355282474,,,
01.498,2.405964326,,,
01.500,2.418634789,,,
01.502,2.190566453,,,
01.504,2.114543675,,,
01.506,1.911816265,,,
01.508,1.911816265,,,
01.510,1.949827654,,,
01.512,2.165225527,,,
01.514,2.342612011,,,
01.516,2.165225527,,,
01.518,2.076532285,,,
01.520,2.291930158,,,
01.522,2.291930158,,,
01.524,2.3806234,,,
01.526,2.558009883,,,
01.528,2.405964326,,,
01.530,2.659373588,,,
01.532,2.91278285,,,
01.534,3.254885354,,,
01.536,3.761703878,,,
01.538,3.939090361,,,
01.540,4.21784055,,,
01.542,4.534602127,,,
01.544,4.559943053,,,
01.546,4.420567959,,,
01.548,4.281192865,,,
01.550,4.027783603,,,
01.552,3.711022026,,,
01.554,3.48295369,,,
01.556,3.305567206,,,
01.558,3.11551026,,,
01.560,2.58335081,,,
01.562,2.21590738,,,
01.564,1.975168581,,,
01.566,1.84846395,,,
01.568,1.747100245,,,
01.570,1.835793486,,,
01.572,2.051191359,,,
01.574,2.152555064,,,
01.576,2.279259695,,,
01.578,2.507328031,,,
01.580,2.481987105,,,
01.582,2.443975715,,,
01.584,2.139884601,,,
01.586,2.000509507,,,
01.588,1.785111634,,,
01.590,2.101873212,,,
01.592,2.443975715,,,
01.594,2.3806234,,,
01.596,2.418634789,,,
01.598,2.431305252,,,
01.600,2.481987105,,,
01.602,2.494657568,,,
01.604,2.329941547,,,
01.606,2.139884601,,,
01.608,2.038520896,,,
01.610,2.089202749,,,
01.612,2.17789599,,,
01.614,2.190566453,,,
01.616,2.253918769,,,
01.618,2.443975715,,,
01.620,2.786078219,,,
01.622,2.469316642,,,
01.624,2.241248306,,,
01.626,2.3806234,,,
01.628,2.317271084,,,
01.630,2.266589232,,,
01.632,2.431305252,,,
01.634,2.532668957,,,
01.636,2.456646178,,,
01.638,2.481987105,,,
01.640,2.266589232,,,
01.642,2.266589232,,,
01.644,2.431305252,,,
01.646,2.317271084,,,
01.648,2.405964326,,,
01.650,2.317271084,,,
01.652,2.519998494,,,
01.654,2.621362199,,,
01.656,2.507328031,,,
01.658,2.532668957,,,
01.660,2.165225527,,,
01.662,2.291930158,,,
01.664,2.481987105,,,
01.666,2.431305252,,,
01.668,2.317271084,,,
01.670,2.405964326,,,
01.672,2.355282474,,,
01.674,2.431305252,,,
01.676,2.469316642,,,
01.678,2.469316642,,,
01.680,2.342612011,,,
01.682,2.291930158,,,
01.684,2.291930158,,,
01.686,2.507328031,,,
01.688,2.760737293,,,
01.690,2.608691736,,,
01.692,2.355282474,,,
01.694,2.684714514,,,
01.696,2.722725904,,,
01.698,2.634032662,,,
01.700,2.532668957,,,
01.702,2.54533942,,,
01.704,2.507328031,,,
01.706,2.54533942,,,
01.708,2.456646178,,,
01.710,2.596021273,,,
01.712,2.74806683,,,
01.714,2.798748682,,,
01.716,2.862100998,,,
01.718,3.001476092,,,
01.720,2.710055441,,,
01.722,2.431305252,,,
01.724,2.532668957,,,
01.726,2.431305252,,,
01.728,2.773407756,,,
01.730,2.710055441,,,
01.732,2.621362199,,,
01.734,2.862100998,,,
01.736,3.090169334,,,
01.738,3.090169334,,,
01.740,2.824089608,,,
01.742,2.735396367,,,
01.744,3.014146555,,,
01.746,2.925453313,,,
01.748,2.760737293,,,
01.750,2.862100998,,,
01.752,3.026817018,,,
01.754,3.128180723,,,
01.756,3.216873965,,,
01.758,3.052157944,,,
01.760,2.646703125,,,
01.762,2.558009883,,,
01.764,2.988805629,,,
01.766,3.026817018,,,
01.768,3.001476092,,,
01.770,2.950794239,,,
01.772,3.140851186,,,
01.774,3.292896743,,,
01.776,3.064828407,,,
01.778,3.052157944,,,
01.780,3.064828407,,,
01.782,2.874771461,,,
01.784,2.925453313,,,
01.786,2.862100998,,,
01.788,2.836760072,,,
01.790,2.722725904,,,
01.792,2.91278285,,,
01.794,2.950794239,,,
01.796,2.862100998,,,
01.798,2.925453313,,,
01.800,2.621362199,,,
01.802,2.54533942,,,
01.804,2.443975715,,,
01.806,2.54533942,,,
01.808,2.456646178,,,
01.810,2.58335081,,,
01.812,2.697384977,,,
01.814,2.58335081,,,
01.816,2.58335081,,,
01.818,2.443975715,,,
01.820,2.063861822,,,
01.822,2.443975715,,,
01.824,2.532668957,,,
01.826,2.469316642,,,
01.828,2.393293863,,,
01.830,2.469316642,,,
01.832,2.456646178,,,
01.834,2.329941547,,,
01.836,2.3806234,,,
01.838,2.58335081,,,
01.840,2.507328031,,,
01.842,2.443975715,,,
01.844,2.431305252,,,
01.846,2.393293863,,,
01.848,1.975168581,,,
01.850,2.266589232,,,
01.852,2.367952937,,,
01.854,2.393293863,,,
01.856,2.393293863,,,
01.858,2.329941547,,,
01.860,2.329941547,,,
01.862,2.127214138,,,
01.864,2.139884601,,,
01.866,2.279259695,,,
01.868,2.342612011,,,
01.870,2.393293863,,,
01.872,2.405964326,,,
01.874,2.355282474,,,
01.876,2.367952937,,,
01.878,2.165225527,,,
01.880,2.000509507,,,
01.882,2.076532285,,,
01.884,2.101873212,,,
01.886,2.152555064,,,
01.888,2.279259695,,,
01.890,2.494657568,,,
01.892,2.621362199,,,
01.894,2.608691736,,,
01.896,2.469316642,,,
01.898,2.519998494,,,
01.900,2.253918769,,,
01.902,2.089202749,,,
01.904,2.228577843,,,
01.906,2.203236916,,,
01.908,2.203236916,,,
01.910,2.228577843,,,
01.912,2.367952937,,,
01.914,2.3806234,,,
01.916,2.481987105,,,
01.918,2.456646178,,,
01.920,2.558009883,,,
01.922,2.228577843,,,
01.924,2.21590738,,,
01.926,2.101873212,,,
01.928,2.152555064,,,
01.930,2.21590738,,,
01.932,2.329941547,,,
01.934,2.456646178,,,
01.936,2.317271084,,,
01.938,2.367952937,,,
01.940,2.418634789,,,
01.942,2.228577843,,,
01.944,2.329941547,,,
01.946,2.405964326,,,
01.948,2.329941547,,,
01.950,2.3806234,,,
01.952,2.456646178,,,
01.954,2.596021273,,,
01.956,2.456646178,,,
01.958,2.469316642,,,
01.960,2.304600621,,,
01.962,2.127214138,,,
01.964,1.924486728,,,
01.966,2.266589232,,,
01.968,2.266589232,,,
01.970,2.291930158,,,
01.972,2.621362199,,,
01.974,2.54533942,,,
01.976,2.532668957,,,
01.978,2.443975715,,,
01.980,2.342612011,,,
01.982,2.241248306,,,
01.984,2.253918769,,,
01.986,2.114543675,,,
01.988,2.089202749,,,
01.990,2.17789599,,,
01.992,2.342612011,,,
01.994,2.558009883,,,
01.996,2.672044051,,,
01.998,2.431305252,,,
02.000,2.253918769,,,
02.002,2.190566453,,,
02.004,2.152555064,,,
02.006,2.228577843,,,
02.008,2.228577843,,,
02.010,2.279259695,,,
02.012,2.54533942,,,
02.014,2.481987105,,,
02.016,2.431305252,,,
02.018,2.355282474,,,
02.020,2.367952937,,,
02.022,2.21590738,,,
02.024,2.114543675,,,
02.026,2.266589232,,,
02.028,2.203236916,,,
02.030,2.304600621,,,
02.032,2.431305252,,,
02.034,2.456646178,,,
02.036,2.203236916,,,
02.038,2.418634789,,,
02.040,2.58335081,,,
02.042,2.190566453,,,
02.044,2.241248306,,,
02.046,2.21590738,,,
02.048,2.266589232,,,
02.050,2.393293863,,,
02.052,2.393293863,,,
02.054,2.355282474,,,
02.056,2.266589232,,,
02.058,2.291930158,,,
02.060,2.17789599,,,
02.062,2.01317997,,,
02.064,2.139884601,,,
02.066,2.190566453,,,
02.068,2.405964326,,,
02.070,2.494657568,,,
02.072,2.469316642,,,
02.074,2.443975715,,,
02.076,2.203236916,,,
02.078,2.01317997,,,
02.080,2.203236916,,,
02.082,2.304600621,,,
02.084,2.253918769,,,
02.086,2.355282474,,,
02.088,2.431305252,,,
02.090,2.519998494,,,
02.092,2.519998494,,,
02.094,2.431305252,,,
02.096,2.355282474,,,
02.098,2.253918769,,,
02.100,1.734429782,,,
02.102,2.01317997,,,
02.104,2.393293863,,,
02.106,2.304600621,,,
02.108,2.266589232,,,
02.110,2.367952937,,,
02.112,2.431305252,,,
02.114,2.507328031,,,
02.116,2.634032662,,,
02.118,2.507328031,,,
02.120,2.114543675,,,
02.122,1.797782097,,,
02.124,1.595054688,,,
02.126,1.924486728,,,
02.128,2.329941547,,,
02.130,2.532668957,,,
02.132,2.570680346,,,
02.134,2.481987105,,,
02.136,2.418634789,,,
02.138,2.279259695,,,
02.140,2.076532285,,,
02.142,1.81045256,,,
02.144,1.899145802,,,
02.146,2.279259695,,,
02.148,2.431305252,,,
02.150,2.570680346,,,
02.152,2.456646178,,,
02.154,2.456646178,,,
02.156,2.58335081,,,
02.158,2.481987105,,,
02.160,2.279259695,,,
02.162,2.203236916,,,
02.164,2.152555064,,,
02.166,2.000509507,,,
02.168,2.266589232,,,
02.170,2.570680346,,,
02.172,2.722725904,,,
02.174,2.304600621,,,
02.176,2.393293863,,,
02.178,2.494657568,,,
02.180,2.329941547,,,
02.182,2.367952937,,,
02.184,2.355282474,,,
02.186,2.367952937,,,
02.188,2.139884601,,,
02.190,2.532668957,,,
02.192,2.532668957,,,
02.194,2.342612011,,,
02.196,2.54533942,,,
02.198,2.58335081,,,
02.200,2.393293863,,,
02.202,2.165225527,,,
02.204,2.203236916,,,
02.206,2.291930158,,,
02.208,2.152555064,,,
02.210,2.21590738,,,
02.212,2.672044051,,,
02.214,2.760737293,,,
02.216,2.570680346,,,
02.218,2.367952937,,,
02.220,2.203236916,,,
02.222,2.228577843,,,
02.224,2.000509507,,,
02.226,2.025850433,,,
02.228,2.203236916,,,
02.230,2.431305252,,,
02.232,2.418634789,,,
02.234,2.443975715,,,
02.236,2.355282474,,,
02.238,2.329941547,,,
02.240,2.317271084,,,
02.242,1.975168581,,,
02.244,1.924486728,,,
02.246,2.165225527,,,
02.248,2.291930158,,,
02.250,2.291930158,,,
02.252,2.279259695,,,
02.254,2.21590738,,,
02.256,2.21590738,,,
02.258,2.228577843,,,
02.260,2.21590738,,,
02.262,2.203236916,,,
02.264,2.279259695,,,
02.266,2.405964326,,,
02.268,2.3806234,,,
02.270,2.21590738,,,
02.272,2.190566453,,,
02.274,2.063861822,,,
02.276,2.317271084,,,
02.278,2.342612011,,,
02.280,1.937157191,,,
02.282,1.924486728,,,
02.284,1.937157191,,,
02.286,2.000509507,,,
02.288,2.152555064,,,
02.290,2.317271084,,,
02.292,2.291930158,,,
02.294,2.494657568,,,
02.296,2.317271084,,,
02.298,2.228577843,,,
02.300,2.114543675,,,
02.302,2.076532285,,,
02.304,1.987839044,,,
02.306,1.962498117,,,
02.308,2.000509507,,,
02.310,2.266589232,,,
02.312,2.367952937,,,
02.314,2.076532285,,,
02.316,2.038520896,,,
02.318,2.241248306,,,
02.320,2.304600621,,,
02.322,2.342612011,,,
02.324,2.481987105,,,
02.326,2.634032662,,,
02.328,2.798748682,,,
02.330,2.963464703,,,
02.332,3.318237669,,,
02.334,3.723692489,,,
02.336,3.964431288,,,
02.338,3.875738046,,,
02.340,3.964431288,,,
02.342,4.17982916,,,
02.344,4.306533791,,,
02.346,4.331874718,,,
02.348,4.268522402,,,
02.350,3.799715267,,,
02.352,3.749033415,,,
02.354,3.470283227,,,
02.356,3.026817018,,,
02.358,2.608691736,,,
02.360,2.3806234,,,
02.362,2.01317997,,,
02.364,1.81045256,,,
02.366,2.063861822,,,
02.368,1.975168581,,,
02.370,2.304600621,,,
02.372,2.443975715,,,
02.374,2.279259695,,,
02.376,2.228577843,,,
02.378,2.266589232,,,
02.380,2.3806234,,,
02.382,2.127214138,,,
02.384,2.291930158,,,
02.386,2.241248306,,,
02.388,2.481987105,,,
02.390,2.405964326,,,
02.392,2.456646178,,,
02.394,2.418634789,,,
02.396,2.355282474,,,
02.398,2.266589232,,,
02.400,2.241248306,,,
02.402,2.127214138,,,
02.404,1.987839044,,,
02.406,1.949827654,,,
02.408,2.266589232,,,
02.410,2.431305252,,,
02.412,2.431305252,,,
02.414,2.443975715,,,
02.416,2.329941547,,,
02.418,2.443975715,,,
02.420,2.291930158,,,
02.422,2.253918769,,,
02.424,2.165225527,,,
02.426,2.114543675,,,
02.428,2.367952937,,,
02.430,2.507328031,,,
02.432,2.54533942,,,
02.434,2.418634789,,,
02.436,2.532668957,,,
02.438,2.342612011,,,
02.440,2.469316642,,,
02.442,2.241248306,,,
02.444,2.000509507,,,
02.446,2.253918769,,,
02.448,2.469316642,,,
02.450,2.443975715,,,
02.452,2.418634789,,,
02.454,2.291930158,,,
02.456,2.228577843,,,
02.458,2.58335081,,,
02.460,2.710055441,,,
02.462,2.418634789,,,
02.464,2.3806234,,,
02.466,2.431305252,,,
02.468,2.596021273,,,
02.470,2.646703125,,,
02.472,2.672044051,,,
02.474,2.393293863,,,
02.476,2.203236916,,,
02.478,2.342612011,,,
02.480,2.127214138,,,
02.482,1.861134413,,,
02.484,2.317271084,,,
02.486,2.659373588,,,
02.488,2.811419145,,,
02.490,2.74806683,,,
02.492,2.697384977,,,
02.494,2.672044051,,,
02.496,2.659373588,,,
02.498,2.507328031,,,
02.500,2.405964326,,,
02.502,2.532668957,,,
02.504,2.54533942,,,
02.506,2.558009883,,,
02.508,2.54533942,,,
02.510,2.418634789,,,
02.512,2.608691736,,,
02.514,2.646703125,,,
02.516,2.773407756,,,
02.518,2.710055441,,,
02.520,2.786078219,,,
02.522,2.519998494,,,
02.524,2.494657568,,,
02.526,2.735396367,,,
02.528,2.874771461,,,
02.530,2.887441924,,,
02.532,3.014146555,,,
02.534,3.039487481,,,
02.536,2.786078219,,,
02.538,2.558009883,,,
02.540,2.659373588,,,
02.542,2.672044051,,,
02.544,2.887441924,,,
02.546,3.001476092,,,
02.548,3.28022628,,,
02.550,3.11551026,,,
02.552,3.039487481,,,
02.554,2.849430535,,,
02.556,2.811419145,,,
02.558,2.874771461,,,
02.560,2.836760072,,,
02.562,2.798748682,,,
02.564,2.887441924,,,
02.566,3.191533038,,,
02.568,3.267555817,,,
02.570,3.267555817,,,
02.572,3.204203502,,,
02.574,3.11551026,,,
02.576,3.052157944,,,
02.578,2.798748682,,,
02.580,2.570680346,,,
02.582,2.697384977,,,
02.584,2.811419145,,,
02.586,2.773407756,,,
02.588,3.052157944,,,
02.590,3.064828407,,,
02.592,2.874771461,,,
02.594,2.874771461,,,
02.596,2.925453313,,,
02.598,2.634032662,,,
02.600,2.481987105,,,
02.602,2.570680346,,,
02.604,2.519998494,,,
02.606,2.697384977,,,
02.608,2.621362199,,,
02.610,2.507328031,,,
02.612,2.672044051,,,
02.614,2.469316642,,,
02.616,2.355282474,,,
02.618,2.038520896,,,
02.620,2.038520896,,,
02.622,2.507328031,,,
02.624,2.684714514,,,
02.626,2.773407756,,,
02.628,2.570680346,,,
02.630,2.570680346,,,
02.632,2.393293863,,,
02.634,2.367952937,,,
02.636,2.507328031,,,
02.638,2.253918769,,,
02.640,2.152555064,,,
02.642,2.279259695,,,
02.644,2.228577843,,,
02.646,2.304600621,,,
02.648,2.507328031,,,
02.650,2.405964326,,,
02.652,2.241248306,,,
02.654,2.127214138,,,
02.656,2.203236916,,,
02.658,2.17789599,,,
02.660,2.063861822,,,
02.662,2.17789599,,,
02.664,2.266589232,,,
02.666,2.190566453,,,
02.668,2.051191359,,,
02.670,2.367952937,,,
02.672,2.735396367,,,
02.674,2.469316642,,,
02.676,2.190566453,,,
02.678,2.089202749,,,
02.680,2.063861822,,,
02.682,2.279259695,,,
02.684,1.924486728,,,
02.686,2.228577843,,,
02.688,2.558009883,,,
02.690,2.519998494,,,
02.692,2.519998494,,,
02.694,2.431305252,,,
02.696,2.127214138,,,
02.698,2.139884601,,,
02.700,2.101873212,,,
02.702,2.01317997,,,
02.704,2.089202749,,,
02.706,2.405964326,,,
02.708,2.608691736,,,
02.710,2.443975715,,,
02.712,2.355282474,,,
02.714,2.469316642,,,
02.716,2.21590738,,,
02.718,2.165225527,,,
02.720,2.114543675,,,
02.722,2.3806234,,,
02.724,2.431305252,,,
02.726,2.304600621,,,
02.728,2.152555064,,,
02.730,2.279259695,,,
02.732,2.494657568,,,
02.734,2.367952937,,,
02.736,2.139884601,,,
02.738,2.114543675,,,
02.740,2.101873212,,,
02.742,2.241248306,,,
02.744,2.431305252,,,
02.746,2.456646178,,,
02.748,2.519998494,,,
02.750,2.494657568,,,
02.752,2.469316642,,,
02.754,2.342612011,,,
02.756,2.21590738,,,
02.758,2.291930158,,,
02.760,2.139884601,,,
02.762,2.317271084,,,
02.764,2.317271084,,,
02.766,2.355282474,,,
02.768,2.431305252,,,
02.770,2.621362199,,,
02.772,2.443975715,,,
02.774,2.266589232,,,
02.776,2.342612011,,,
02.778,2.393293863,,,
02.780,2.266589232,,,
02.782,2.519998494,,,
02.784,2.279259695,,,
02.786,2.279259695,,,
02.788,2.494657568,,,
02.790,2.558009883,,,
02.792,2.329941547,,,
02.794,2.228577843,,,
02.796,2.203236916,,,
02.798,2.114543675,,,
02.800,2.165225527,,,
02.802,2.152555064,,,
02.804,2.317271084,,,
02.806,2.494657568,,,
02.808,2.443975715,,,
02.810,2.367952937,,,
02.812,2.469316642,,,
02.814,2.431305252,,,
02.816,2.228577843,,,
02.818,2.190566453,,,
02.820,2.291930158,,,
02.822,2.17789599,,,
02.824,2.241248306,,,
02.826,2.481987105,,,
02.828,2.684714514,,,
02.830,2.519998494,,,
02.832,2.418634789,,,
02.834,2.266589232,,,
02.836,2.089202749,,,
02.838,2.304600621,,,
02.840,2.038520896,,,
02.842,2.114543675,,,
02.844,2.329941547,,,
02.846,2.418634789,,,
02.848,2.405964326,,,
02.850,2.456646178,,,
02.852,2.443975715,,,
02.854,2.279259695,,,
02.856,2.000509507,,,
02.858,2.266589232,,,
02.860,2.279259695,,,
02.862,2.291930158,,,
02.864,2.456646178,,,
02.866,2.481987105,,,
02.868,2.393293863,,,
02.870,2.367952937,,,
02.872,2.329941547,,,
02.874,2.203236916,,,
02.876,2.127214138,,,
02.878,1.975168581,,,
02.880,1.975168581,,,
02.882,2.507328031,,,
02.884,2.494657568,,,
02.886,2.469316642,,,
02.888,2.418634789,,,
02.890,2.507328031,,,
02.892,2.431305252,,,
02.894,2.17789599,,,
02.896,2.089202749,,,
02.898,2.038520896,,,
02.900,2.139884601,,,
02.902,2.253918769,,,
02.904,2.139884601,,,
02.906,2.089202749,,,
02.908,2.190566453,,,
02.910,2.659373588,,,
02.912,2.558009883,,,
02.914,2.367952937,,,
02.916,2.190566453,,,
02.918,2.228577843,,,
02.920,2.139884601,,,
02.922,2.152555064,,,
02.924,2.266589232,,,
02.926,2.443975715,,,
02.928,2.481987105,,,
02.930,2.456646178,,,
02.932,2.241248306,,,
02.934,2.139884601,,,
02.936,2.228577843,,,
02.938,2.190566453,,,
02.940,2.304600621,,,
02.942,2.456646178,,,
02.944,2.596021273,,,
02.946,2.519998494,,,
02.948,2.3806234,,,
02.950,2.431305252,,,
02.952,2.266589232,,,
02.954,2.329941547,,,
02.956,2.279259695,,,
02.958,1.899145802,,,
02.960,2.076532285,,,
02.962,2.393293863,,,
02.964,2.481987105,,,
02.966,2.481987105,,,
02.968,2.456646178,,,
02.970,2.456646178,,,
02.972,2.431305252,,,
02.974,2.266589232,,,
02.976,2.203236916,,,
02.978,2.203236916,,,
02.980,2.241248306,,,
02.982,2.241248306,,,
02.984,2.532668957,,,
02.986,2.672044051,,,
02.988,2.722725904,,,
02.990,2.634032662,,,
02.992,2.494657568,,,
02.994,2.279259695,,,
02.996,2.165225527,,,
02.998,2.418634789,,,
03.000,2.494657568,,,
03.002,2.507328031,,,
03.004,2.558009883,,,
03.006,2.634032662,,,
03.008,2.58335081,,,
03.010,2.570680346,,,
03.012,2.634032662,,,
03.014,2.393293863,,,
03.016,2.456646178,,,
03.018,2.241248306,,,
03.020,2.01317997,,,
03.022,2.076532285,,,
03.024,2.228577843,,,
03.026,2.418634789,,,
03.028,2.519998494,,,
03.030,2.431305252,,,
03.032,2.3806234,,,
03.034,2.266589232,,,
03.036,2.114543675,,,
03.038,1.861134413,,,
03.040,1.962498117,,,
03.042,2.076532285,,,
03.044,2.456646178,,,
03.046,2.786078219,,,
03.048,2.646703125,,,
03.050,2.507328031,,,
03.052,2.304600621,,,
03.054,2.241248306,,,
03.056,2.089202749,,,
03.058,2.17789599,,,
03.060,2.329941547,,,
03.062,2.329941547,,,
03.064,2.266589232,,,
03.066,2.317271084,,,
03.068,2.494657568,,,
03.070,2.469316642,,,
03.072,2.3806234,,,
03.074,2.076532285,,,
03.076,2.127214138,,,
03.078,2.101873212,,,
03.080,2.051191359,,,
03.082,2.241248306,,,
03.084,2.3806234,,,
03.086,2.405964326,,,
03.088,2.570680346,,,
03.090,2.279259695,,,
03.092,2.228577843,,,
03.094,2.241248306,,,
03.096,2.152555064,,,
03.098,2.101873212,,,
03.100,2.266589232,,,
03.102,2.329941547,,,
03.104,2.405964326,,,
03.106,2.304600621,,,
03.108,2.279259695,,,
03.110,2.241248306,,,
03.112,2.089202749,,,
03.114,1.899145802,,,
03.116,1.84846395,,,
03.118,1.987839044,,,
03.120,2.025850433,,,
03.122,2.405964326,,,
03.124,2.456646178,,,
03.126,2.74806683,,,
03.128,3.07749887,,,
03.130,3.090169334,,,
03.132,3.292896743,,,
03.134,3.254885354,,,
03.136,3.495624153,,,
03.138,4.027783603,,,
03.140,4.319204255,,,
03.142,4.648636295,,,
03.144,4.610624906,,,
03.146,4.572613517,,,
03.148,4.420567959,,,
03.150,4.078465456,,,
03.152,3.698351563,,,
03.154,3.660340173,,,
03.156,3.495624153,,,
03.158,3.026817018,,,
03.160,2.558009883,,,
03.162,2.481987105,,,
03.164,2.241248306,,,
03.166,2.342612011,,,
03.168,2.3806234,,,
03.170,2.203236916,,,
03.172,2.203236916,,,
03.174,2.139884601,,,
03.176,2.203236916,,,
03.178,2.329941547,,,
03.180,2.393293863,,,
03.182,2.456646178,,,
03.184,2.317271084,,,
03.186,2.456646178,,,
03.188,2.469316642,,,
03.190,2.507328031,,,
03.192,2.596021273,,,
03.194,2.329941547,,,
03.196,2.203236916,,,
03.198,2.241248306,,,
03.200,2.393293863,,,
03.202,2.469316642,,,
03.204,2.431305252,,,
03.206,2.190566453,,,
03.208,2.101873212,,,
03.210,2.405964326,,,
03.212,2.279259695,,,
03.214,2.190566453,,,
03.216,2.367952937,,,
03.218,2.3806234,,,
03.220,2.266589232,,,
03.222,2.418634789,,,
03.224,2.532668957,,,
03.226,2.621362199,,,
03.228,2.355282474,,,
03.230,2.17789599,,,
03.232,2.367952937,,,
03.234,2.507328031,,,
03.236,2.367952937,,,
03.238,2.228577843,,,
03.240,2.203236916,,,
03.242,2.608691736,,,
03.244,2.811419145,,,
03.246,2.722725904,,,
03.248,2.634032662,,,
03.250,2.634032662,,,
03.252,2.494657568,,,
03.254,2.456646178,,,
03.256,2.54533942,,,
03.258,2.139884601,,,
03.260,2.17789599,,,
03.262,2.634032662,,,
03.264,2.697384977,,,
03.266,2.621362199,,,
03.268,2.608691736,,,
03.270,2.443975715,,,
03.272,2.241248306,,,
03.274,2.165225527,,,
03.276,2.507328031,,,
03.278,2.532668957,,,
03.280,2.3806234,,,
03.282,2.558009883,,,
03.284,2.659373588,,,
03.286,2.722725904,,,
03.288,2.634032662,,,
03.290,2.570680346,,,
03.292,2.722725904,,,
03.294,2.431305252,,,
03.296,2.418634789,,,
03.298,2.393293863,,,
03.300,2.443975715,,,
03.302,2.659373588,,,
03.304,2.634032662,,,
03.306,2.735396367,,,
03.308,2.862100998,,,
03.310,2.874771461,,,
03.312,2.621362199,,,
03.314,2.760737293,,,
03.316,2.672044051,,,
03.318,2.786078219,,,
03.320,2.760737293,,,
03.322,2.976135166,,,
03.324,3.001476092,,,
03.326,2.925453313,,,
03.328,3.052157944,,,
03.330,2.862100998,,,
03.332,2.697384977,,,
03.334,2.887441924,,,
03.336,2.735396367,,,
03.338,2.925453313,,,
03.340,3.07749887,,,
03.342,3.102839797,,,
03.344,3.064828407,,,
03.346,3.090169334,,,
03.348,2.91278285,,,
03.350,2.735396367,,,
03.352,3.166192112,,,
03.354,3.052157944,,,
03.356,2.773407756,,,
03.358,3.128180723,,,
03.360,3.356249059,,,
03.362,3.4449423,,,
03.364,3.140851186,,,
03.366,3.07749887,,,
03.368,3.216873965,,,
03.370,3.178862575,,,
03.372,3.001476092,,,
03.374,2.938123776,,,
03.376,3.11551026,,,
03.378,3.140851186,,,
03.380,3.254885354,,,
03.382,3.292896743,,,
03.384,3.267555817,,,
03.386,3.204203502,,,
03.388,3.102839797,,,
03.390,2.874771461,,,
03.392,2.507328031,,,
03.394,2.317271084,,,
03.396,2.684714514,,,
03.398,2.900112387,,,
03.400,3.064828407,,,
03.402,2.938123776,,,
03.404,2.988805629,,,
03.406,2.938123776,,,
03.408,2.74806683,,,
03.410,2.443975715,,,
03.412,2.228577843,,,
03.414,2.507328031,,,
03.416,2.735396367,,,
03.418,2.722725904,,,
03.420,2.443975715,,,
03.422,2.443975715,,,
03.424,2.646703125,,,
03.426,2.659373588,,,
03.428,2.54533942,,,
03.430,2.456646178,,,
03.432,2.519998494,,,
03.434,2.329941547,,,
03.436,2.304600621,,,
03.438,2.558009883,,,
03.440,2.532668957,,,
03.442,2.507328031,,,
03.444,2.507328031,,,
03.446,2.443975715,,,
03.448,2.127214138,,,
03.450,2.253918769,,,
03.452,2.329941547,,,
03.454,2.266589232,,,
03.456,2.101873212,,,
03.458,2.393293863,,,
03.460,2.532668957,,,
03.462,2.507328031,,,
03.464,2.507328031,,,
03.466,2.405964326,,,
03.468,2.3806234,,,
03.470,2.3806234,,,
03.472,2.279259695,,,
03.474,2.203236916,,,
03.476,2.203236916,,,
03.478,2.076532285,,,
03.480,2.393293863,,,
03.482,2.608691736,,,
03.484,2.304600621,,,
03.486,2.000509507,,,
03.488,2.165225527,,,
03.490,2.481987105,,,
03.492,2.54533942,,,
03.494,2.3806234,,,
03.496,2.355282474,,,
03.498,2.393293863,,,
03.500,2.443975715,,,
03.502,2.3806234,,,
03.504,2.608691736,,,
03.506,2.634032662,,,
03.508,2.456646178,,,
03.510,2.304600621,,,
03.512,2.241248306,,,
03.514,2.228577843,,,
03.516,2.317271084,,,
03.518,2.17789599,,,
03.520,2.190566453,,,
03.522,2.127214138,,,
03.524,2.431305252,,,
03.526,2.54533942,,,
03.528,2.735396367,,,
03.530,2.494657568,,,
03.532,2.405964326,,,
03.534,2.152555064,,,
03.536,2.190566453,,,
03.538,2.393293863,,,
03.540,2.431305252,,,
03.542,2.469316642,,,
03.544,2.608691736,,,
03.546,2.659373588,,,
03.548,2.608691736,,,
03.550,2.291930158,,,
03.552,2.266589232,,,
03.554,2.139884601,,,
03.556,2.17789599,,,
03.558,2.291930158,,,
03.560,2.393293863,,,
03.562,2.418634789,,,
03.564,2.519998494,,,
03.566,2.621362199,,,
03.568,2.634032662,,,
03.570,2.393293863,,,
03.572,2.291930158,,,
03.574,2.241248306,,,
03.576,2.342612011,,,
03.578,2.317271084,,,
03.580,2.405964326,,,
03.582,2.443975715,,,
03.584,2.608691736,,,
03.586,2.519998494,,,
03.588,2.329941547,,,
03.590,2.355282474,,,
03.592,2.532668957,,,
03.594,2.469316642,,,
03.596,2.558009883,,,
03.598,2.241248306,,,
03.600,2.393293863,,,
03.602,2.494657568,,,
03.604,2.443975715,,,
03.606,2.418634789,,,
03.608,2.443975715,,,
03.610,2.279259695,,,
03.612,2.17789599,,,
03.614,2.241248306,,,
03.616,2.266589232,,,
03.618,2.266589232,,,
03.620,2.3806234,,,
03.622,2.431305252,,,
03.624,2.634032662,,,
03.626,2.570680346,,,
03.628,2.431305252,,,
03.630,2.253918769,,,
03.632,2.089202749,,,
03.634,2.038520896,,,
03.636,2.405964326,,,
03.638,2.355282474,,,
03.640,2.494657568,,,
03.642,2.418634789,,,
03.644,2.051191359,,,
03.646,2.393293863,,,
03.648,2.558009883,,,
03.650,2.519998494,,,
03.652,2.405964326,,,
03.654,2.279259695,,,
03.656,2.266589232,,,
03.658,2.152555064,,,
03.660,2.329941547,,,
03.662,2.646703125,,,
03.664,2.393293863,,,
03.666,2.266589232,,,
03.668,2.431305252,,,
03.670,2.443975715,,,
03.672,2.393293863,,,
03.674,2.304600621,,,
03.676,2.405964326,,,
03.678,2.405964326,,,
03.680,2.21590738,,,
03.682,2.3806234,,,
03.684,2.3806234,,,
03.686,2.279259695,,,
03.688,2.519998494,,,
03.690,2.203236916,,,
03.692,2.089202749,,,
03.694,2.139884601,,,
03.696,2.456646178,,,
03.698,2.54533942,,,
03.700,2.507328031,,,
03.702,2.596021273,,,
03.704,2.418634789,,,
03.706,2.317271084,,,
03.708,2.291930158,,,
03.710,2.469316642,,,
03.712,2.443975715,,,
03.714,2.405964326,,,
03.716,2.558009883,,,
03.718,2.393293863,,,
03.720,2.317271084,,,
03.722,2.355282474,,,
03.724,2.393293863,,,
03.726,2.596021273,,,
03.728,2.58335081,,,
03.730,2.405964326,,,
03.732,1.975168581,,,
03.734,2.228577843,,,
03.736,2.608691736,,,
03.738,2.672044051,,,
03.740,2.811419145,,,
03.742,2.836760072,,,
03.744,2.735396367,,,
03.746,2.596021273,,,
03.748,2.58335081,,,
03.750,2.405964326,,,
03.752,2.355282474,,,
03.754,2.393293863,,,
03.756,2.431305252,,,
03.758,2.456646178,,,
03.760,2.443975715,,,
03.762,2.342612011,,,
03.764,2.608691736,,,
03.766,2.697384977,,,
03.768,2.469316642,,,
03.770,2.266589232,,,
03.772,2.190566453,,,
03.774,2.190566453,,,
03.776,2.241248306,,,
03.778,2.456646178,,,
03.780,2.443975715,,,
03.782,2.367952937,,,
03.784,2.507328031,,,
03.786,2.443975715,,,
03.788,2.21590738,,,
03.790,2.203236916,,,
03.792,2.203236916,,,
03.794,2.253918769,,,
03.796,2.203236916,,,
03.798,2.253918769,,,
03.800,2.329941547,,,
03.802,2.418634789,,,
03.804,2.558009883,,,
03.806,2.621362199,,,
03.808,2.532668957,,,
03.810,2.127214138,,,
03.812,1.835793486,,,
03.814,2.21590738,,,
03.816,2.051191359,,,
03.818,2.127214138,,,
03.820,2.418634789,,,
03.822,2.596021273,,,
03.824,2.393293863,,,
03.826,2.469316642,,,
03.828,2.317271084,,,
03.830,2.532668957,,,
03.832,2.393293863,,,
03.834,2.342612011,,,
03.836,2.405964326,,,
03.838,2.21590738,,,
03.840,2.317271084,,,
03.842,2.393293863,,,
03.844,2.317271084,,,
03.846,2.266589232,,,
03.848,2.152555064,,,
03.850,2.21590738,,,
03.852,2.17789599,,,
03.854,2.17789599,,,
03.856,2.203236916,,,
03.858,2.304600621,,,
03.860,2.203236916,,,
03.862,2.329941547,,,
03.864,2.431305252,,,
03.866,2.342612011,,,
03.868,2.405964326,,,
03.870,2.456646178,,,
03.872,2.608691736,,,
03.874,2.532668957,,,
03.876,3.11551026,,,
03.878,3.558976468,,,
03.880,3.470283227,,,
03.882,3.64766971,,,
03.884,3.888408509,,,
03.886,4.306533791,,,
03.888,4.293863328,,,
03.890,4.433238422,,,
03.892,4.420567959,,,
03.894,4.281192865,,,
03.896,4.255851939,,,
03.898,4.116476845,,,
03.900,3.660340173,,,
03.902,3.381589985,,,
03.904,2.976135166,,,
03.906,2.798748682,,,
03.908,2.266589232,,,
03.910,1.987839044,,,
03.912,1.797782097,,,
03.914,1.823123023,,,
03.916,2.279259695,,,
03.918,2.405964326,,,
03.920,2.367952937,,,
03.922,2.342612011,,,
03.924,2.469316642,,,
03.926,2.431305252,,,
03.928,2.393293863,,,
03.930,2.405964326,,,
03.932,2.266589232,,,
03.934,2.329941547,,,
03.936,2.3806234,,,
03.938,2.443975715,,,
03.940,2.621362199,,,
03.942,2.91278285,,,
03.944,2.659373588,,,
03.946,2.367952937,,,
03.948,2.203236916,,,
03.950,2.203236916,,,
03.952,2.329941547,,,
03.954,2.266589232,,,
03.956,2.21590738,,,
03.958,2.279259695,,,
03.960,2.570680346,,,
03.962,2.950794239,,,
03.964,2.659373588,,,
03.966,2.165225527,,,
03.968,2.355282474,,,
03.970,2.418634789,,,
03.972,2.253918769,,,
03.974,2.304600621,,,
03.976,2.443975715,,,
03.978,2.558009883,,,
03.980,2.672044051,,,
03.982,2.773407756,,,
03.984,2.722725904,,,
03.986,2.773407756,,,
03.988,2.532668957,,,
03.990,2.443975715,,,
03.992,2.304600621,,,
03.994,2.367952937,,,
03.996,2.596021273,,,
03.998,2.722725904,,,
04.000,2.722725904,,,
04.002,2.760737293,,,
04.004,2.608691736,,,
04.006,2.481987105,,,
04.008,2.355282474,,,
04.010,2.329941547,,,
04.012,2.304600621,,,
04.014,2.393293863,,,
04.016,2.58335081,,,
04.018,2.646703125,,,
04.020,2.621362199,,,
04.022,2.672044051,,,
04.024,2.519998494,,,
04.026,2.393293863,,,
04.028,2.279259695,,,
04.030,2.051191359,,,
04.032,2.279259695,,,
04.034,2.241248306,,,
04.036,2.570680346,,,
04.038,3.11551026,,,
04.040,3.166192112,,,
04.042,2.938123776,,,
04.044,2.862100998,,,
04.046,2.836760072,,,
04.048,2.74806683,,,
04.050,2.596021273,,,
04.052,2.54533942,,,
04.054,2.659373588,,,
04.056,2.684714514,,,
04.058,2.74806683,,,
04.060,2.874771461,,,
04.062,2.976135166,,,
04.064,3.014146555,,,
04.066,2.925453313,,,
04.068,2.773407756,,,
04.070,2.874771461,,,
04.072,2.862100998,,,
04.074,2.836760072,,,
04.076,2.887441924,,,
04.078,3.039487481,,,
04.080,3.128180723,,,
04.082,3.026817018,,,
04.084,2.938123776,,,
04.086,3.014146555,,,
04.088,2.900112387,,,
04.090,2.950794239,,,
04.092,2.950794239,,,
04.094,2.988805629,,,
04.096,2.988805629,,,
04.098,3.026817018,,,
04.100,3.4449423,,,
04.102,3.406930911,,,
04.104,3.343578596,,,
04.106,3.128180723,,,
04.108,2.824089608,,,
04.110,2.91278285,,,
04.112,2.900112387,,,
04.114,3.140851186,,,
04.116,3.001476092,,,
04.118,3.178862575,,,
04.120,3.242214891,,,
04.122,3.216873965,,,
04.124,3.242214891,,,
04.126,3.064828407,,,
04.128,2.938123776,,,
04.130,2.773407756,,,
04.132,2.988805629,,,
04.134,2.91278285,,,
04.136,3.064828407,,,
04.138,3.026817018,,,
04.140,2.874771461,,,
04.142,2.849430535,,,
04.144,3.153521649,,,
04.146,2.874771461,,,
04.148,2.672044051,,,
04.150,2.58335081,,,
04.152,2.54533942,,,
04.154,2.659373588,,,
04.156,2.824089608,,,
04.158,2.862100998,,,
04.160,2.684714514,,,
04.162,2.646703125,,,
04.164,2.621362199,,,
04.166,2.494657568,,,
04.168,2.558009883,,,
04.170,2.393293863,,,
04.172,2.21590738,,,
04.174,2.431305252,,,
04.176,2.672044051,,,
04.178,2.773407756,,,
04.180,2.608691736,,,
04.182,2.355282474,,,
04.184,2.304600621,,,
04.186,2.279259695,,,
04.188,2.507328031,,,
04.190,2.507328031,,,
04.192,2.253918769,,,
04.194,2.279259695,,,
04.196,2.355282474,,,
04.198,2.228577843,,,
04.200,2.507328031,,,
04.202,2.697384977,,,
04.204,2.532668957,,,
04.206,2.393293863,,,
04.208,2.367952937,,,
04.210,2.3806234,,,
04.212,2.3806234,,,
04.214,2.431305252,,,
04.216,2.54533942,,,
04.218,2.570680346,,,
04.220,2.304600621,,,
04.222,2.291930158,,,
04.224,2.494657568,,,
04.226,2.367952937,,,
04.228,2.266589232,,,
04.230,2.342612011,,,
04.232,2.481987105,,,
04.234,2.507328031,,,
04.236,2.481987105,,,
04.238,2.469316642,,,
04.240,2.405964326,,,
04.242,2.317271084,,,
04.244,2.405964326,,,
04.246,2.203236916,,,
04.248,1.873804876,,,
04.250,1.772441171,,,
04.252,2.54533942,,,
04.254,2.405964326,,,
04.256,2.355282474,,,
04.258,2.659373588,,,
04.260,2.672044051,,,
04.262,2.443975715,,,
04.264,2.418634789,,,
04.266,2.393293863,,,
04.268,2.203236916,,,
04.270,2.367952937,,,
04.272,2.494657568,,,
04.274,2.481987105,,,
04.276,2.507328031,,,
04.278,2.608691736,,,
04.280,2.74806683,,,
04.282,2.418634789,,,
04.284,2.241248306,,,
04.286,2.063861822,,,
04.288,2.051191359,,,
04.290,2.038520896,,,
04.292,2.507328031,,,
04.294,2.596021273,,,
04.296,2.570680346,,,
04.298,2.570680346,,,
04.300,2.621362199,,,
04.302,2.798748682,,,
04.304,2.659373588,,,
04.306,2.3806234,,,
04.308,2.266589232,,,
04.310,2.203236916,,,
04.312,2.266589232,,,
04.314,2.469316642,,,
04.316,2.443975715,,,
04.318,2.367952937,,,
04.320,2.203236916,,,
04.322,2.266589232,,,
04.324,2.393293863,,,
04.326,2.228577843,,,
04.328,2.507328031,,,
04.330,2.266589232,,,
04.332,2.443975715,,,
04.334,2.481987105,,,
04.336,2.418634789,,,
04.338,2.507328031,,,
04.340,2.355282474,,,
04.342,2.241248306,,,
04.344,2.3806234,,,
04.346,2.405964326,,,
04.348,2.114543675,,,
04.350,2.17789599,,,
04.352,2.431305252,,,
04.354,2.469316642,,,
04.356,2.74806683,,,
04.358,2.519998494,,,
04.360,2.329941547,,,
04.362,2.481987105,,,
04.364,2.3806234,,,
04.366,2.367952937,,,
04.368,2.304600621,,,
04.370,2.266589232,,,
04.372,2.456646178,,,
04.374,2.393293863,,,
04.376,2.456646178,,,
04.378,2.494657568,,,
04.380,2.659373588,,,
04.382,2.608691736,,,
04.384,2.456646178,,,
04.386,2.228577843,,,
04.388,1.633066077,,,
04.390,1.64573654,,,
04.392,2.634032662,,,
04.394,2.672044051,,,
04.396,2.3806234,,,
04.398,2.355282474,,,
04.400,2.393293863,,,
04.402,2.456646178,,,
04.404,2.355282474,,,
04.406,2.291930158,,,
04.408,2.355282474,,,
04.410,2.304600621,,,
04.412,2.367952937,,,
04.414,2.481987105,,,
04.416,2.621362199,,,
04.418,2.621362199,,,
04.420,2.469316642,,,
04.422,2.405964326,,,
04.424,2.443975715,,,
04.426,2.367952937,,,
04.428,2.203236916,,,
04.430,2.317271084,,,
04.432,2.393293863,,,
04.434,2.393293863,,,
04.436,2.253918769,,,
04.438,2.418634789,,,
04.440,2.608691736,,,
04.442,2.684714514,,,
04.444,2.456646178,,,
04.446,2.329941547,,,
04.448,2.17789599,,,
04.450,2.481987105,,,
04.452,2.646703125,,,
04.454,2.519998494,,,
04.456,2.507328031,,,
04.458,2.570680346,,,
04.460,2.684714514,,,
04.462,2.621362199,,,
04.464,2.519998494,,,
04.466,2.608691736,,,
04.468,2.558009883,,,
04.470,2.367952937,,,
04.472,2.393293863,,,
04.474,2.735396367,,,
04.476,2.760737293,,,
04.478,2.621362199,,,
04.480,2.304600621,,,
04.482,2.291930158,,,
04.484,2.317271084,,,
04.486,1.975168581,,,
04.488,1.937157191,,,
04.490,2.051191359,,,
04.492,2.393293863,,,
04.494,2.659373588,,,
04.496,2.342612011,,,
04.498,2.558009883,,,
04.500,2.507328031,,,
04.502,2.393293863,,,
04.504,2.304600621,,,
04.506,2.355282474,,,
04.508,2.190566453,,,
04.510,2.21590738,,,
04.512,2.507328031,,,
04.514,2.418634789,,,
04.516,2.228577843,,,
04.518,2.241248306,,,
04.520,2.266589232,,,
04.522,2.317271084,,,
04.524,2.304600621,,,
04.526,2.241248306,,,
04.528,2.203236916,,,
04.530,2.329941547,,,
04.532,2.291930158,,,
04.534,2.532668957,,,
04.536,2.342612011,,,
04.538,2.3806234,,,
04.540,2.456646178,,,
04.542,2.367952937,,,
04.544,2.063861822,,,
04.546,1.987839044,,,
04.548,2.139884601,,,
04.550,2.228577843,,,
04.552,2.393293863,,,
04.554,2.393293863,,,
04.556,2.54533942,,,
04.558,2.596021273,,,
04.560,2.532668957,,,
04.562,2.139884601,,,
04.564,1.924486728,,,
04.566,1.747100245,,,
04.568,2.279259695,,,
04.570,2.621362199,,,
04.572,2.367952937,,,
04.574,2.317271084,,,
04.576,2.355282474,,,
04.578,2.3806234,,,
04.580,2.393293863,,,
04.582,2.443975715,,,
04.584,2.165225527,,,
04.586,2.329941547,,,
04.588,2.456646178,,,
04.590,3.052157944,,,
04.592,3.229544428,,,
04.594,3.381589985,,,
04.596,3.774374341,,,
04.598,4.091135919,,,
04.600,4.243181476,,,
04.602,4.357215644,,,
04.604,4.243181476,,,
04.606,4.230511013,,,
04.608,4.192499623,,,
04.610,4.154488234,,,
04.612,3.787044804,,,
04.614,3.381589985,,,
04.616,3.330908133,,,
04.618,3.381589985,,,
04.620,2.91278285,,,
04.622,2.456646178,,,
04.624,2.139884601,,,
04.626,2.000509507,,,
04.628,1.886475339,,,
04.630,1.683747929,,,
04.632,1.975168581,,,
04.634,2.469316642,,,
04.636,2.634032662,,,
04.638,2.684714514,,,
04.640,2.646703125,,,
04.642,2.418634789,,,
04.644,2.393293863,,,
04.646,2.3806234,,,
04.648,2.507328031,,,
04.650,2.367952937,,,
04.652,2.253918769,,,
04.654,2.114543675,,,
04.656,2.54533942,,,
04.658,2.735396367,,,
04.660,2.672044051,,,
04.662,2.393293863,,,
04.664,2.241248306,,,
04.666,2.279259695,,,
04.668,2.317271084,,,
04.670,2.405964326,,,
04.672,2.519998494,,,
04.674,2.722725904,,,
04.676,2.532668957,,,
04.678,2.481987105,,,
04.680,2.418634789,,,
04.682,2.405964326,,,
04.684,2.507328031,,,
04.686,2.317271084,,,
04.688,2.279259695,,,
04.690,2.469316642,,,
04.692,2.519998494,,,
04.694,2.481987105,,,
04.696,2.608691736,,,
04.698,2.659373588,,,
04.700,2.596021273,,,
04.702,2.469316642,,,
04.704,2.291930158,,,
04.706,2.266589232,,,
04.708,2.152555064,,,
04.710,2.342612011,,,
04.712,2.608691736,,,
04.714,2.58335081,,,
04.716,2.684714514,,,
04.718,2.786078219,,,
04.720,2.74806683,,,
04.722,2.558009883,,,
04.724,2.266589232,,,
04.726,2.241248306,,,
04.728,2.291930158,,,
04.730,2.786078219,,,
04.732,2.760737293,,,
04.734,2.798748682,,,
04.736,2.824089608,,,
04.738,2.773407756,,,
04.740,2.672044051,,,
04.742,2.431305252,,,
04.744,2.304600621,,,
04.746,2.393293863,,,
04.748,2.58335081,,,
04.750,2.74806683,,,
04.752,2.887441924,,,
04.754,2.798748682,,,
04.756,2.710055441,,,
04.758,2.735396367,,,
04.760,2.634032662,,,
04.762,2.469316642,,,
04.764,2.393293863,,,
04.766,2.469316642,,,
04.768,2.634032662,,,
04.770,2.684714514,,,
04.772,3.07749887,,,
04.774,3.102839797,,,
04.776,2.900112387,,,
04.778,2.950794239,,,
04.780,2.798748682,,,
04.782,2.684714514,,,
04.784,2.836760072,,,
04.786,2.849430535,,,
04.788,2.684714514,,,
04.790,2.824089608,,,
04.792,3.07749887,,,
04.794,3.178862575,,,
04.796,3.11551026,,,
04.798,2.988805629,,,
04.800,3.001476092,,,
04.802,2.786078219,,,
04.804,2.74806683,,,
04.806,2.849430535,,,
04.808,3.11551026,,,
04.810,3.28022628,,,
04.812,3.229544428,,,
04.814,3.368919522,,,
04.816,3.368919522,,,
04.818,3.001476092,,,
04.820,3.001476092,,,
04.822,3.064828407,,,
04.824,2.925453313,,,
04.826,2.760737293,,,
04.828,3.052157944,,,
04.830,3.330908133,,,
04.832,3.267555817,,,
04.834,3.28022628,,,
04.836,2.925453313,,,
04.838,3.128180723,,,
04.840,3.064828407,,,
04.842,3.07749887,,,
04.844,2.874771461,,,
04.846,2.74806683,,,
04.848,2.91278285,,,
04.850,2.963464703,,,
04.852,2.950794239,,,
04.854,2.988805629,,,
04.856,2.824089608,,,
04.858,2.862100998,,,
04.860,2.874771461,,,
04.862,2.646703125,,,
04.864,2.494657568,,,
04.866,2.519998494,,,
04.868,2.74806683,,,
04.870,2.824089608,,,
04.872,2.798748682,,,
04.874,2.798748682,,,
04.876,2.798748682,,,
04.878,2.608691736,,,
04.880,2.393293863,,,
04.882,2.393293863,,,
04.884,2.58335081,,,
04.886,2.342612011,,,
04.888,2.469316642,,,
04.890,2.596021273,,,
04.892,2.786078219,,,
04.894,2.697384977,,,
04.896,2.596021273,,,
04.898,2.532668957,,,
04.900,2.21590738,,,
04.902,2.21590738,,,
04.904,2.291930158,,,
04.906,2.621362199,,,
04.908,2.507328031,,,
04.910,2.481987105,,,
04.912,2.519998494,,,
04.914,2.672044051,,,
04.916,2.494657568,,,
04.918,2.228577843,,,
04.920,2.139884601,,,
04.922,2.165225527,,,
04.924,2.17789599,,,
04.926,2.17789599,,,
04.928,2.329941547,,,
04.930,2.443975715,,,
04.932,2.532668957,,,
04.934,2.418634789,,,
04.936,2.481987105,,,
04.938,2.481987105,,,
04.940,2.456646178,,,
04.942,2.532668957,,,
04.944,2.241248306,,,
04.946,2.355282474,,,
04.948,2.329941547,,,
04.950,2.418634789,,,
04.952,2.684714514,,,
04.954,2.342612011,,,
04.956,2.646703125,,,
04.958,2.74806683,,,
04.960,2.54533942,,,
04.962,2.279259695,,,
04.964,2.317271084,,,
04.966,2.279259695,,,
04.968,2.266589232,,,
04.970,2.405964326,,,
04.972,2.443975715,,,
04.974,2.532668957,,,
04.976,2.621362199,,,
04.978,2.507328031,,,
04.980,2.266589232,,,
04.982,2.253918769,,,
04.984,2.165225527,,,
04.986,2.203236916,,,
04.988,2.241248306,,,
04.990,2.418634789,,,
04.992,2.367952937,,,
04.994,2.304600621,,,
04.996,2.456646178,,,
04.998,2.317271084,,,
05.000,2.17789599,,,
05.002,2.3806234,,,
05.004,2.355282474,,,
05.006,2.266589232,,,
05.008,2.291930158,,,
05.010,2.634032662,,,
05.012,2.760737293,,,
05.014,2.58335081,,,
05.016,2.54533942,,,
05.018,2.532668957,,,
05.020,2.152555064,,,
05.022,2.139884601,,,
05.024,2.266589232,,,
05.026,2.494657568,,,
05.028,2.621362199,,,
05.030,2.684714514,,,
05.032,2.558009883,,,
05.034,2.456646178,,,
05.036,2.558009883,,,
05.038,2.519998494,,,
05.040,2.431305252,,,
05.042,2.367952937,,,
05.044,2.329941547,,,
05.046,2.317271084,,,
05.048,2.317271084,,,
05.050,2.266589232,,,
05.052,2.291930158,,,
05.054,2.608691736,,,
05.056,2.58335081,,,
05.058,2.393293863,,,
05.060,2.253918769,,,
05.062,2.266589232,,,
05.064,2.342612011,,,
05.066,2.317271084,,,
05.068,2.241248306,,,
05.070,2.431305252,,,
05.072,2.570680346,,,
05.074,2.355282474,,,
05.076,2.304600621,,,
05.078,2.519998494,,,
05.080,2.558009883,,,
05.082,2.342612011,,,
05.084,2.291930158,,,
05.086,2.405964326,,,
05.088,2.304600621,,,
05.090,2.443975715,,,
05.092,2.329941547,,,
05.094,2.431305252,,,
05.096,2.456646178,,,
05.098,2.342612011,,,
05.100,2.291930158,,,
05.102,2.317271084,,,
05.104,2.114543675,,,
05.106,2.342612011,,,
05.108,2.469316642,,,
05.110,2.519998494,,,
05.112,2.58335081,,,
05.114,2.304600621,,,
05.116,2.253918769,,,
05.118,2.355282474,,,
05.120,2.279259695,,,
05.122,2.405964326,,,
05.124,2.443975715,,,
05.126,2.393293863,,,
05.128,2.519998494,,,
05.130,2.469316642,,,
05.132,2.519998494,,,
05.134,2.418634789,,,
05.136,2.367952937,,,
05.138,2.431305252,,,
05.140,2.3806234,,,
05.142,2.291930158,,,
05.144,2.266589232,,,
05.146,2.532668957,,,
05.148,2.266589232,,,
05.150,2.089202749,,,
05.152,2.494657568,,,
05.154,2.697384977,,,
05.156,2.532668957,,,
05.158,2.3806234,,,
05.160,2.405964326,,,
05.162,2.291930158,,,
05.164,2.266589232,,,
05.166,2.291930158,,,
05.168,2.342612011,,,
05.170,2.672044051,,,
05.172,2.824089608,,,
05.174,2.887441924,,,
05.176,2.710055441,,,
05.178,2.304600621,,,
05.180,2.329941547,,,
05.182,2.431305252,,,
05.184,2.431305252,,,
05.186,2.431305252,,,
05.188,2.443975715,,,
05.190,2.621362199,,,
05.192,2.431305252,,,
05.194,2.443975715,,,
05.196,2.431305252,,,
05.198,2.431305252,,,
05.200,2.317271084,,,
05.202,2.228577843,,,
05.204,2.329941547,,,
05.206,2.443975715,,,
05.208,2.596021273,,,
05.210,2.532668957,,,
05.212,2.355282474,,,
05.214,2.456646178,,,
05.216,2.443975715,,,
05.218,2.203236916,,,
05.220,2.076532285,,,
05.222,1.975168581,,,
05.224,2.01317997,,,
05.226,2.279259695,,,
05.228,2.405964326,,,
05.230,2.507328031,,,
05.232,2.532668957,,,
05.234,2.418634789,,,
05.236,2.3806234,,,
05.238,2.279259695,,,
05.240,2.21590738,,,
05.242,2.203236916,,,
05.244,2.139884601,,,
05.246,2.17789599,,,
05.248,2.291930158,,,
05.250,2.621362199,,,
05.252,2.54533942,,,
05.254,2.3806234,,,
05.256,2.266589232,,,
05.258,2.317271084,,,
05.260,2.051191359,,,
05.262,2.165225527,,,
05.264,2.393293863,,,
05.266,2.329941547,,,
05.268,2.342612011,,,
05.270,2.481987105,,,
05.272,2.54533942,,,
05.274,2.634032662,,,
05.276,2.54533942,,,
05.278,2.304600621,,,
05.280,2.17789599,,,
05.282,2.114543675,,,
05.284,2.152555064,,,
05.286,2.127214138,,,
05.288,2.190566453,,,
05.290,2.317271084,,,
05.292,2.241248306,,,
05.294,2.063861822,,,
05.296,2.266589232,,,
05.298,2.203236916,,,
05.300,2.063861822,,,
05.302,2.127214138,,,
05.304,2.21590738,,,
05.306,2.786078219,,,
05.308,3.128180723,,,
05.310,3.204203502,,,
05.312,3.584317395,,,
05.314,3.711022026,,,
05.316,3.863067583,,,
05.318,4.103806382,,,
05.320,4.293863328,,,
05.322,4.306533791,,,
05.324,4.281192865,,,
05.326,4.21784055,,,
05.328,4.293863328,,,
05.330,4.078465456,,,
05.332,3.698351563,,,
05.334,3.267555817,,,
05.336,3.216873965,,,
05.338,2.798748682,,,
05.340,2.3806234,,,
05.342,2.038520896,,,
05.344,2.063861822,,,
05.346,2.000509507,,,
05.348,2.089202749,,,
05.350,2.393293863,,,
05.352,2.367952937,,,
05.354,2.291930158,,,
05.356,2.329941547,,,
05.358,2.393293863,,,
05.360,2.519998494,,,
05.362,2.367952937,,,
05.364,2.367952937,,,
05.366,2.329941547,,,
05.368,2.443975715,,,
05.370,2.58335081,,,
05.372,2.507328031,,,
05.374,2.418634789,,,
05.376,2.203236916,,,
05.378,1.797782097,,,
05.380,1.924486728,,,
05.382,2.469316642,,,
05.384,2.519998494,,,
05.386,2.456646178,,,
05.388,2.519998494,,,
05.390,2.532668957,,,
05.392,2.456646178,,,
05.394,2.418634789,,,
05.396,2.393293863,,,
05.398,2.304600621,,,
05.400,2.139884601,,,
05.402,2.17789599,,,
05.404,2.367952937,,,
05.406,2.608691736,,,
05.408,2.634032662,,,
05.410,2.672044051,,,
05.412,2.621362199,,,
05.414,2.456646178,,,
05.416,2.367952937,,,
05.418,2.266589232,,,
05.420,2.291930158,,,
05.422,2.393293863,,,
05.424,2.418634789,,,
05.426,2.393293863,,,
05.428,2.519998494,,,
05.430,2.773407756,,,
05.432,2.418634789,,,
05.434,2.456646178,,,
05.436,2.58335081,,,
05.438,2.367952937,,,
05.440,2.304600621,,,
05.442,2.304600621,,,
05.444,2.342612011,,,
05.446,2.469316642,,,
05.448,2.519998494,,,
05.450,2.355282474,,,
05.452,2.241248306,,,
05.454,2.798748682,,,
05.456,2.760737293,,,
05.458,2.621362199,,,
05.460,2.481987105,,,
05.462,2.393293863,,,
05.464,2.532668957,,,
05.466,2.672044051,,,
05.468,2.697384977,,,
05.470,2.735396367,,,
05.472,2.74806683,,,
05.474,2.558009883,,,
05.476,2.3806234,,,
05.478,2.494657568,,,
05.480,2.634032662,,,
05.482,2.367952937,,,
05.484,2.3806234,,,
05.486,2.760737293,,,
05.488,2.887441924,,,
05.490,2.735396367,,,
05.492,2.798748682,,,
05.494,2.596021273,,,
05.496,2.710055441,,,
05.498,2.684714514,,,
05.500,2.710055441,,,
05.502,2.697384977,,,
05.504,2.684714514,,,
05.506,2.91278285,,,
05.508,3.052157944,,,
05.510,3.052157944,,,
05.512,2.988805629,,,
05.514,2.824089608,,,
05.516,2.672044051,,,
05.518,2.773407756,,,
05.520,2.887441924,,,
05.522,2.91278285,,,
05.524,3.014146555,,,
05.526,3.204203502,,,
05.528,3.305567206,,,
05.530,3.178862575,,,
05.532,3.001476092,,,
05.534,2.91278285,,,
05.536,2.798748682,,,
05.538,2.697384977,,,
05.540,2.874771461,,,
05.542,3.102839797,,,
05.544,3.166192112,,,
05.546,3.216873965,,,
05.548,3.28022628,,,
05.550,3.153521649,,,
05.552,3.191533038,,,
05.554,3.090169334,,,
05.556,2.862100998,,,
05.558,2.773407756,,,
05.560,2.798748682,,,
05.562,2.596021273,,,
05.564,2.418634789,,,
05.566,2.570680346,,,
05.568,3.305567206,,,
05.570,3.229544428,,,
05.572,2.925453313,,,
05.574,2.938123776,,,
05.576,2.874771461,,,
05.578,2.634032662,,,
05.580,2.558009883,,,
05.582,2.570680346,,,
05.584,2.621362199,,,
05.586,2.646703125,,,
05.588,2.54533942,,,
05.590,2.481987105,,,
05.592,2.621362199,,,
05.594,2.456646178,,,
05.596,2.456646178,,,
05.598,2.21590738,,,
05.600,2.405964326,,,
05.602,2.443975715,,,
05.604,2.608691736,,,
05.606,2.507328031,,,
05.608,2.3806234,,,
05.610,2.253918769,,,
05.612,2.342612011,,,
05.614,2.469316642,,,
05.616,2.127214138,,,
05.618,2.431305252,,,
05.620,2.443975715,,,
05.622,2.304600621,,,
05.624,2.342612011,,,
05.626,2.519998494,,,
05.628,2.431305252,,,
05.630,2.481987105,,,
05.632,2.481987105,,,
05.634,2.393293863,,,
05.636,2.3806234,,,
05.638,2.228577843,,,
05.640,2.17789599,,,
05.642,2.038520896,,,
05.644,2.21590738,,,
05.646,2.418634789,,,
05.648,2.507328031,,,
05.650,2.634032662,,,
05.652,2.203236916,,,
05.654,2.367952937,,,
05.656,2.367952937,,,
05.658,2.228577843,,,
05.660,2.038520896,,,
05.662,2.165225527,,,
05.664,2.3806234,,,
05.666,2.418634789,,,
05.668,1.987839044,,,
05.670,2.076532285,,,
05.672,2.697384977,,,
05.674,2.74806683,,,
05.676,2.367952937,,,
05.678,2.17789599,,,
05.680,2.17789599,,,
05.682,2.241248306,,,
05.684,2.253918769,,,
05.686,2.58335081,,,
05.688,2.558009883,,,
05.690,2.228577843,,,
05.692,2.367952937,,,
05.694,2.241248306,,,
05.696,2.304600621,,,
05.698,2.342612011,,,
05.700,2.393293863,,,
05.702,2.469316642,,,
05.704,2.443975715,,,
05.706,2.367952937,,,
05.708,2.469316642,,,
05.710,2.507328031,,,
05.712,2.431305252,,,
05.714,2.291930158,,,
05.716,2.17789599,,,
05.718,2.190566453,,,
05.720,2.21590738,,,
05.722,2.355282474,,,
05.724,2.469316642,,,
05.726,2.596021273,,,
05.728,2.58335081,,,
05.730,2.481987105,,,
05.732,2.228577843,,,
05.734,2.101873212,,,
05.736,2.266589232,,,
05.738,2.241248306,,,
05.740,2.279259695,,,
05.742,2.17789599,,,
05.744,2.304600621,,,
05.746,2.722725904,,,
05.748,2.722725904,,,
05.750,2.659373588,,,
05.752,2.393293863,,,
05.754,2.342612011,,,
05.756,2.393293863,,,
05.758,2.228577843,,,
05.760,1.962498117,,,
05.762,1.759770708,,,
05.764,2.291930158,,,
05.766,2.786078219,,,
05.768,2.862100998,,,
05.770,2.697384977,,,
05.772,2.481987105,,,
05.774,2.291930158,,,
05.776,2.3806234,,,
05.778,2.367952937,,,
05.780,2.17789599,,,
05.782,2.241248306,,,
05.784,2.304600621,,,
05.786,2.431305252,,,
05.788,2.634032662,,,
05.790,2.494657568,,,
05.792,2.431305252,,,
05.794,2.190566453,,,
05.796,2.241248306,,,
05.798,2.355282474,,,
05.800,2.241248306,,,
05.802,2.051191359,,,
05.804,2.025850433,,,
05.806,2.608691736,,,
05.808,2.58335081,,,
05.810,2.494657568,,,
05.812,2.507328031,,,
05.814,2.329941547,,,
05.816,2.203236916,,,
05.818,2.076532285,,,
05.820,2.000509507,,,
05.822,2.21590738,,,
05.824,2.469316642,,,
05.826,2.507328031,,,
05.828,2.393293863,,,
05.830,2.418634789,,,
05.832,2.621362199,,,
05.834,2.519998494,,,
05.836,2.317271084,,,
05.838,2.165225527,,,
05.840,2.152555064,,,
05.842,2.000509507,,,
05.844,2.190566453,,,
05.846,2.646703125,,,
05.848,2.697384977,,,
05.850,2.621362199,,,
05.852,2.54533942,,,
05.854,2.405964326,,,
05.856,2.241248306,,,
05.858,2.139884601,,,
05.860,2.114543675,,,
05.862,2.051191359,,,
05.864,2.418634789,,,
05.866,2.494657568,,,
05.868,2.596021273,,,
05.870,2.456646178,,,
05.872,2.291930158,,,
05.874,2.190566453,,,
05.876,2.456646178,,,
05.878,2.58335081,,,
05.880,1.987839044,,,
05.882,1.734429782,,,
05.884,2.481987105,,,
05.886,2.836760072,,,
05.888,2.735396367,,,
05.890,2.507328031,,,
05.892,2.3806234,,,
05.894,2.279259695,,,
05.896,2.3806234,,,
05.898,2.304600621,,,
05.900,2.329941547,,,
05.902,2.431305252,,,
05.904,2.418634789,,,
05.906,2.735396367,,,
05.908,2.786078219,,,
05.910,2.684714514,,,
05.912,2.58335081,,,
05.914,2.3806234,,,
05.916,2.253918769,,,
05.918,2.203236916,,,
05.920,2.519998494,,,
05.922,2.507328031,,,
05.924,2.507328031,,,
05.926,2.558009883,,,
05.928,2.646703125,,,
05.930,2.532668957,,,
05.932,2.228577843,,,
05.934,2.165225527,,,
05.936,2.165225527,,,
05.938,2.317271084,,,
05.940,2.355282474,,,
05.942,2.291930158,,,
05.944,2.443975715,,,
05.946,2.54533942,,,
05.948,2.089202749,,,
05.950,1.835793486,,,
05.952,2.342612011,,,
05.954,2.481987105,,,
05.956,2.393293863,,,
05.958,2.469316642,,,
05.960,2.253918769,,,
05.962,2.228577843,,,
05.964,2.329941547,,,
05.966,2.393293863,,,
05.968,2.558009883,,,
05.970,2.21590738,,,
05.972,2.101873212,,,
05.974,2.3806234,,,
05.976,2.304600621,,,
05.978,2.21590738,,,
05.980,2.21590738,,,
05.982,2.342612011,,,
05.984,2.367952937,,,
05.986,2.405964326,,,
05.988,2.431305252,,,
05.990,2.418634789,,,
05.992,2.253918769,,,
05.994,2.000509507,,,
05.996,1.899145802,,,
05.998,2.025850433,,,
06.000,2.329941547,,,
06.002,2.443975715,,,
06.004,2.405964326,,,
06.006,2.481987105,,,
06.008,2.3806234,,,
06.010,2.253918769,,,
06.012,2.304600621,,,
06.014,2.481987105,,,
06.016,2.266589232,,,
06.018,1.937157191,,,
06.020,1.772441171,,,
06.022,1.84846395,,,
06.024,2.063861822,,,
06.026,2.456646178,,,
06.028,2.570680346,,,
06.030,2.279259695,,,
06.032,2.228577843,,,
06.034,2.21590738,,,
06.036,2.038520896,,,
06.038,2.063861822,,,
06.040,2.279259695,,,
06.042,2.532668957,,,
06.044,2.684714514,,,
06.046,2.798748682,,,
06.048,3.11551026,,,
06.050,3.318237669,,,
06.052,3.368919522,,,
06.054,3.698351563,,,
06.056,3.799715267,,,
06.058,3.989772214,,,
06.060,3.989772214,,,
06.062,4.433238422,,,
06.064,4.635965832,,,
06.066,4.471249812,,,
06.068,4.243181476,,,
06.070,3.888408509,,,
06.072,3.48295369,,,
06.074,3.026817018,,,
06.076,2.811419145,,,
06.078,2.54533942,,,
06.080,2.3806234,,,
06.082,2.241248306,,,
06.084,2.279259695,,,
06.086,2.190566453,,,
06.088,2.114543675,,,
06.090,2.139884601,,,
06.092,2.21590738,,,
06.094,2.139884601,,,
06.096,2.3806234,,,
06.098,2.418634789,,,
06.100,2.3806234,,,
06.102,2.279259695,,,
06.104,2.3806234,,,
06.106,2.596021273,,,
06.108,2.659373588,,,
06.110,2.469316642,,,
06.112,2.228577843,,,
06.114,2.21590738,,,
06.116,2.266589232,,,
06.118,2.21590738,,,
06.120,2.393293863,,,
06.122,2.773407756,,,
06.124,2.3806234,,,
06.126,2.241248306,,,
06.128,2.608691736,,,
06.130,2.443975715,,,
06.132,2.317271084,,,
06.134,2.190566453,,,
06.136,2.101873212,,,
06.138,2.152555064,,,
06.140,2.329941547,,,
06.142,2.291930158,,,
06.144,2.342612011,,,
06.146,2.596021273,,,
06.148,2.481987105,,,
06.150,2.21590738,,,
06.152,2.253918769,,,
06.154,2.152555064,,,
06.156,2.076532285,,,
06.158,2.266589232,,,
06.160,2.469316642,,,
06.162,2.58335081,,,
06.164,2.54533942,,,
06.166,2.355282474,,,
06.168,2.519998494,,,
06.170,2.241248306,,,
06.172,2.329941547,,,
06.174,2.203236916,,,
06.176,2.228577843,,,
06.178,2.608691736,,,
06.180,2.672044051,,,
06.182,2.570680346,,,
06.184,2.74806683,,,
06.186,2.722725904,,,
06.188,2.532668957,,,
06.190,2.481987105,,,
06.192,2.456646178,,,
06.194,2.329941547,,,
06.196,2.304600621,,,
06.198,2.17789599,,,
06.200,2.393293863,,,
06.202,2.684714514,,,
06.204,2.54533942,,,
06.206,2.608691736,,,
06.208,2.558009883,,,
06.210,2.558009883,,,
06.212,2.469316642,,,
06.214,2.519998494,,,
06.216,2.329941547,,,
06.218,2.469316642,,,
06.220,2.684714514,,,
06.222,2.697384977,,,
06.224,2.710055441,,,
06.226,2.697384977,,,
06.228,2.634032662,,,
06.230,2.367952937,,,
06.232,2.456646178,,,
06.234,2.659373588,,,
06.236,2.596021273,,,
06.238,2.760737293,,,
06.240,2.824089608,,,
06.242,2.91278285,,,
06.244,2.887441924,,,
06.246,2.824089608,,,
06.248,2.722725904,,,
06.250,2.672044051,,,
06.252,2.938123776,,,
06.254,2.824089608,,,
06.256,2.963464703,,,
06.258,2.786078219,,,
06.260,2.91278285,,,
06.262,3.090169334,,,
06.264,3.039487481,,,
06.266,2.836760072,,,
06.268,3.128180723,,,
06.270,3.090169334,,,
06.272,3.026817018,,,
06.274,2.976135166,,,
06.276,2.836760072,,,
06.278,2.925453313,,,
06.280,2.988805629,,,
06.282,3.090169334,,,
06.284,3.07749887,,,
06.286,2.938123776,,,
06.288,3.052157944,,,
06.290,3.11551026,,,
06.292,2.950794239,,,
06.294,2.849430535,,,
06.296,2.773407756,,,
06.298,2.950794239,,,
06.300,2.811419145,,,
06.302,3.026817018,,,
06.304,3.052157944,,,
06.306,2.773407756,,,
06.308,2.862100998,,,
06.310,2.874771461,,,
06.312,2.735396367,,,
06.314,2.646703125,,,
06.316,2.760737293,,,
06.318,2.697384977,,,
06.320,2.684714514,,,
06.322,2.672044051,,,
06.324,2.74806683,,,
06.326,2.849430535,,,
06.328,2.596021273,,,
06.330,2.21590738,,,
06.332,2.203236916,,,
06.334,2.317271084,,,
06.336,2.342612011,,,
06.338,2.54533942,,,
06.340,2.54533942,,,
06.342,2.456646178,,,
06.344,2.558009883,,,
06.346,2.494657568,,,
06.348,2.54533942,,,
06.350,2.405964326,,,
06.352,2.291930158,,,
06.354,1.975168581,,,
06.356,1.962498117,,,
06.358,2.481987105,,,
06.360,2.659373588,,,
06.362,2.532668957,,,
06.364,2.621362199,,,
06.366,2.646703125,,,
06.368,2.304600621,,,
06.370,2.165225527,,,
06.372,2.076532285,,,
06.374,1.975168581,,,
06.376,2.063861822,,,
06.378,2.152555064,,,
06.380,2.241248306,,,
06.382,2.456646178,,,
06.384,2.58335081,,,
06.386,2.469316642,,,
06.388,2.405964326,,,
06.390,2.190566453,,,
06.392,2.241248306,,,
06.394,2.266589232,,,
06.396,2.203236916,,,
06.398,2.228577843,,,
06.400,2.266589232,,,
06.402,2.241248306,,,
06.404,2.418634789,,,
06.406,2.393293863,,,
06.408,2.469316642,,,
06.410,2.051191359,,,
06.412,2.165225527,,,
06.414,2.291930158,,,
06.416,2.456646178,,,
06.418,2.21590738,,,
06.420,2.127214138,,,
06.422,2.329941547,,,
06.424,2.3806234,,,
06.426,2.481987105,,,
06.428,2.507328031,,,
06.430,2.241248306,,,
06.432,2.241248306,,,
06.434,2.279259695,,,
06.436,2.165225527,,,
06.438,2.342612011,,,
06.440,2.203236916,,,
06.442,2.329941547,,,
06.444,2.443975715,,,
06.446,2.697384977,,,
06.448,2.3806234,,,
06.450,2.17789599,,,
06.452,2.152555064,,,
06.454,2.165225527,,,
06.456,2.152555064,,,
06.458,2.241248306,,,
06.460,2.317271084,,,
06.462,2.443975715,,,
06.464,2.596021273,,,
06.466,1.962498117,,,
06.468,2.139884601,,,
06.470,2.228577843,,,
06.472,2.291930158,,,
06.474,2.342612011,,,
06.476,2.241248306,,,
06.478,2.203236916,,,
06.480,2.367952937,,,
06.482,2.558009883,,,
06.484,2.58335081,,,
06.486,2.418634789,,,
06.488,2.355282474,,,
06.490,2.241248306,,,
06.492,2.532668957,,,
06.494,2.127214138,,,
06.496,2.266589232,,,
06.498,2.519998494,,,
06.500,2.418634789,,,
06.502,2.291930158,,,
06.504,2.405964326,,,
06.506,2.190566453,,,
06.508,2.355282474,,,
06.510,2.317271084,,,
06.512,2.367952937,,,
06.514,2.279259695,,,
06.516,2.3806234,,,
06.518,2.443975715,,,
06.520,2.304600621,,,
06.522,2.101873212,,,
06.524,1.987839044,,,
06.526,2.203236916,,,
06.528,2.266589232,,,
06.530,2.355282474,,,
06.532,2.367952937,,,
06.534,2.279259695,,,
06.536,2.405964326,,,
06.538,2.456646178,,,
06.540,2.469316642,,,
06.542,2.405964326,,,
06.544,2.291930158,,,
06.546,2.127214138,,,
06.548,2.17789599,,,
06.550,2.456646178,,,
06.552,2.21590738,,,
06.554,2.342612011,,,
06.556,2.317271084,,,
06.558,2.266589232,,,
06.560,2.393293863,,,
06.562,2.532668957,,,
06.564,2.3806234,,,
06.566,2.279259695,,,
06.568,2.165225527,,,
06.570,2.304600621,,,
06.572,2.355282474,,,
06.574,2.456646178,,,
06.576,1.861134413,,,
06.578,2.051191359,,,
06.580,2.431305252,,,
06.582,2.494657568,,,
06.584,2.58335081,,,
06.586,2.253918769,,,
06.588,2.063861822,,,
06.590,2.101873212,,,
06.592,2.063861822,,,
06.594,2.165225527,,,
06.596,2.317271084,,,
06.598,2.190566453,,,
06.600,2.304600621,,,
06.602,2.393293863,,,
06.604,2.329941547,,,
06.606,2.418634789,,,
06.608,2.405964326,,,
06.610,2.494657568,,,
06.612,2.304600621,,,
06.614,2.101873212,,,
06.616,2.139884601,,,
06.618,2.139884601,,,
06.620,2.317271084,,,
06.622,2.342612011,,,
06.624,2.3806234,,,
06.626,2.355282474,,,
06.628,2.279259695,,,
06.630,2.228577843,,,
06.632,2.139884601,,,
06.634,2.089202749,,,
06.636,2.241248306,,,
06.638,2.443975715,,,
06.640,2.481987105,,,
06.642,2.443975715,,,
06.644,2.393293863,,,
06.646,2.304600621,,,
06.648,2.17789599,,,
06.650,2.17789599,,,
06.652,1.899145802,,,
06.654,1.987839044,,,
06.656,2.01317997,,,
06.658,1.962498117,,,
06.660,2.329941547,,,
06.662,2.634032662,,,
06.664,2.58335081,,,
06.666,2.596021273,,,
06.668,2.367952937,,,
06.670,2.3806234,,,
06.672,2.253918769,,,
06.674,2.21590738,,,
06.676,2.076532285,,,
06.678,2.089202749,,,
06.680,2.532668957,,,
06.682,2.697384977,,,
06.684,2.469316642,,,
06.686,2.469316642,,,
06.688,2.253918769,,,
06.690,2.114543675,,,
06.692,2.203236916,,,
06.694,2.21590738,,,
06.696,2.266589232,,,
06.698,2.367952937,,,
06.700,2.494657568,,,
06.702,2.558009883,,,
06.704,2.469316642,,,
06.706,2.393293863,,,
06.708,2.17789599,,,
06.710,2.114543675,,,
06.712,2.266589232,,,
06.714,2.304600621,,,
06.716,2.266589232,,,
06.718,2.494657568,,,
06.720,2.621362199,,,
06.722,2.558009883,,,
06.724,2.507328031,,,
06.726,2.494657568,,,
06.728,2.494657568,,,
06.730,2.317271084,,,
06.732,2.127214138,,,
06.734,2.051191359,,,
06.736,2.025850433,,,
06.738,2.165225527,,,
06.740,2.253918769,,,
06.742,2.431305252,,,
06.744,2.456646178,,,
06.746,2.355282474,,,
06.748,2.21590738,,,
06.750,2.405964326,,,
06.752,2.304600621,,,
06.754,2.21590738,,,
06.756,2.266589232,,,
06.758,2.405964326,,,
06.760,2.355282474,,,
06.762,2.304600621,,,
06.764,2.279259695,,,
06.766,2.228577843,,,
06.768,1.975168581,,,
06.770,2.114543675,,,
06.772,2.203236916,,,
06.774,2.063861822,,,
06.776,2.165225527,,,
06.778,2.279259695,,,
06.780,2.21590738,,,
06.782,2.165225527,,,
06.784,2.241248306,,,
06.786,2.114543675,,,
06.788,2.342612011,,,
06.790,2.405964326,,,
06.792,2.342612011,,,
06.794,2.266589232,,,
06.796,2.063861822,,,
06.798,2.393293863,,,
06.800,2.329941547,,,
06.802,2.291930158,,,
06.804,2.3806234,,,
06.806,2.165225527,,,
06.808,1.987839044,,,
06.810,2.051191359,,,
06.812,2.076532285,,,
06.814,2.101873212,,,
06.816,2.456646178,,,
06.818,2.393293863,,,
06.820,2.17789599,,,
06.822,2.367952937,,,
06.824,2.507328031,,,
06.826,2.279259695,,,
06.828,2.051191359,,,
06.830,2.038520896,,,
06.832,2.025850433,,,
06.834,2.025850433,,,
06.836,2.241248306,,,
06.838,2.266589232,,,
06.840,2.558009883,,,
06.842,2.672044051,,,
06.844,2.735396367,,,
06.846,2.786078219,,,
06.848,3.07749887,,,
06.850,3.11551026,,,
06.852,3.508294616,,,
06.854,3.863067583,,,
06.856,4.141817771,,,
06.858,4.433238422,,,
06.860,4.75,,,
06.862,4.471249812,,,
06.864,4.268522402,,,
06.866,3.749033415,,,
06.868,3.470283227,,,
06.870,3.267555817,,,
06.872,2.900112387,,,
06.874,2.786078219,,,
06.876,2.722725904,,,
06.878,2.532668957,,,
06.880,2.291930158,,,
06.882,2.329941547,,,
06.884,2.190566453,,,
06.886,2.228577843,,,
06.888,2.304600621,,,
06.890,2.101873212,,,
06.892,2.089202749,,,
06.894,2.228577843,,,
06.896,2.443975715,,,
06.898,2.710055441,,,
06.900,2.54533942,,,
06.902,2.317271084,,,
06.904,2.3806234,,,
06.906,2.190566453,,,
06.908,2.139884601,,,
06.910,2.101873212,,,
06.912,2.025850433,,,
06.914,1.835793486,,,
06.916,2.139884601,,,
06.918,2.431305252,,,
06.920,2.481987105,,,
06.922,2.54533942,,,
06.924,2.456646178,,,
06.926,2.405964326,,,
06.928,2.304600621,,,
06.930,2.291930158,,,
06.932,2.17789599,,,
06.934,2.431305252,,,
06.936,2.570680346,,,
06.938,2.697384977,,,
06.940,2.532668957,,,
06.942,2.507328031,,,
06.944,2.418634789,,,
06.946,2.329941547,,,
06.948,2.3806234,,,
06.950,2.279259695,,,
06.952,2.139884601,,,
06.954,2.089202749,,,
06.956,2.443975715,,,
06.958,2.507328031,,,
06.960,2.570680346,,,
06.962,2.558009883,,,
06.964,2.405964326,,,
06.966,2.152555064,,,
06.968,2.076532285,,,
06.970,1.987839044,,,
06.972,2.152555064,,,
06.974,2.74806683,,,
06.976,2.532668957,,,
06.978,2.317271084,,,
06.980,2.443975715,,,
06.982,2.570680346,,,
06.984,2.507328031,,,
06.986,2.076532285,,,
06.988,2.190566453,,,
06.990,2.3806234,,,
06.992,2.494657568,,,
06.994,2.570680346,,,
06.996,2.672044051,,,
06.998,2.558009883,,,
07.000,2.507328031,,,
07.002,2.621362199,,,
07.004,2.443975715,,,
07.006,2.317271084,,,
07.008,2.443975715,,,
07.010,2.431305252,,,
07.012,2.456646178,,,
07.014,2.58335081,,,
07.016,2.697384977,,,
07.018,2.735396367,,,
07.020,2.684714514,,,
07.022,2.786078219,,,
07.024,2.519998494,,,
07.026,2.494657568,,,
07.028,2.570680346,,,
07.030,2.710055441,,,
07.032,2.735396367,,,
07.034,2.74806683,,,
07.036,2.773407756,,,
07.038,2.900112387,,,
07.040,2.925453313,,,
07.042,2.874771461,,,
07.044,2.786078219,,,
07.046,2.481987105,,,
07.048,2.3806234,,,
07.050,2.608691736,,,
07.052,2.621362199,,,
07.054,3.07749887,,,
07.056,3.204203502,,,
07.058,2.988805629,,,
07.060,2.988805629,,,
07.062,2.925453313,,,
07.064,3.026817018,,,
07.066,2.963464703,,,
07.068,2.887441924,,,
07.070,2.697384977,,,
07.072,2.74806683,,,
07.074,2.976135166,,,
07.076,3.191533038,,,
07.078,3.267555817,,,
07.080,3.153521649,,,
07.082,3.064828407,,,
07.084,3.191533038,,,
07.086,2.988805629,,,
07.088,3.090169334,,,
07.090,2.735396367,,,
07.092,2.558009883,,,
07.094,2.963464703,,,
07.096,2.976135166,,,
07.098,2.963464703,,,
07.100,3.102839797,,,
07.102,3.014146555,,,
07.104,2.963464703,,,
07.106,2.773407756,,,
07.108,2.798748682,,,
07.110,2.608691736,,,
07.112,2.672044051,,,
07.114,2.722725904,,,
07.116,2.646703125,,,
07.118,2.811419145,,,
07.120,2.760737293,,,
07.122,2.786078219,,,
07.124,2.646703125,,,
07.126,2.418634789,,,
07.128,2.456646178,,,
07.130,2.481987105,,,
07.132,2.469316642,,,
07.134,2.532668957,,,
07.136,2.596021273,,,
07.138,2.634032662,,,
07.140,2.697384977,,,
07.142,2.481987105,,,
07.144,2.165225527,,,
07.146,2.279259695,,,
07.148,2.329941547,,,
07.150,2.038520896,,,
07.152,2.519998494,,,
07.154,2.253918769,,,
07.156,2.266589232,,,
07.158,2.367952937,,,
07.160,2.608691736,,,
07.162,2.507328031,,,
07.164,2.481987105,,,
07.166,2.17789599,,,
07.168,2.101873212,,,
07.170,2.076532285,,,
07.172,2.190566453,,,
07.174,2.203236916,,,
07.176,1.924486728,,,
07.178,2.317271084,,,
07.180,2.54533942,,,
07.182,2.469316642,,,
07.184,2.291930158,,,
07.186,2.17789599,,,
07.188,2.367952937,,,
07.190,2.228577843,,,
07.192,2.228577843,,,
07.194,2.266589232,,,
07.196,2.405964326,,,
07.198,2.558009883,,,
07.200,2.54533942,,,
07.202,2.393293863,,,
07.204,2.228577843,,,
07.206,2.000509507,,,
07.208,2.063861822,,,
07.210,2.279259695,,,
07.212,2.456646178,,,
07.214,2.431305252,,,
07.216,2.342612011,,,
07.218,2.443975715,,,
07.220,2.58335081,,,
07.222,2.519998494,,,
07.224,2.304600621,,,
07.226,2.228577843,,,
07.228,2.051191359,,,
07.230,2.089202749,,,
07.232,1.937157191,,,
07.234,2.266589232,,,
07.236,2.304600621,,,
07.238,2.405964326,,,
07.240,2.456646178,,,
07.242,2.393293863,,,
07.244,2.266589232,,,
07.246,2.203236916,,,
07.248,2.203236916,,,
07.250,2.101873212,,,
07.252,2.253918769,,,
07.254,2.203236916,,,
07.256,2.405964326,,,
07.258,2.58335081,,,
07.260,2.494657568,,,
07.262,2.317271084,,,
07.264,2.17789599,,,
07.266,2.063861822,,,
07.268,2.279259695,,,
07.270,2.279259695,,,
07.272,2.291930158,,,
07.274,2.634032662,,,
07.276,2.54533942,,,
07.278,2.342612011,,,
07.280,2.405964326,,,
07.282,2.329941547,,,
07.284,2.367952937,,,
07.286,2.317271084,,,
07.288,2.165225527,,,
07.290,2.203236916,,,
07.292,2.228577843,,,
07.294,2.329941547,,,
07.296,2.481987105,,,
07.298,2.469316642,,,
07.300,2.355282474,,,
07.302,2.127214138,,,
07.304,2.203236916,,,
07.306,2.3806234,,,
07.308,2.329941547,,,
07.310,2.367952937,,,
07.312,2.355282474,,,
07.314,2.418634789,,,
07.316,2.317271084,,,
07.318,2.317271084,,,
07.320,2.431305252,,,
07.322,2.507328031,,,
07.324,2.329941547,,,
07.326,2.21590738,,,
07.328,2.266589232,,,
07.330,2.228577843,,,
07.332,2.393293863,,,
07.334,2.570680346,,,
07.336,2.342612011,,,
07.338,2.228577843,,,
07.340,2.519998494,,,
07.342,2.570680346,,,
07.344,2.431305252,,,
07.346,2.291930158,,,
07.348,2.190566453,,,
07.350,2.165225527,,,
07.352,2.076532285,,,
07.354,2.355282474,,,
07.356,2.494657568,,,
07.358,2.203236916,,,
07.360,2.165225527,,,
07.362,2.291930158,,,
07.364,2.279259695,,,
07.366,2.304600621,,,
07.368,2.127214138,,,
07.370,2.114543675,,,
07.372,2.443975715,,,
07.374,2.672044051,,,
07.376,2.456646178,,,
07.378,2.355282474,,,
07.380,2.190566453,,,
07.382,2.190566453,,,
07.384,2.21590738,,,
07.386,2.3806234,,,
07.388,2.355282474,,,
07.390,2.304600621,,,
07.392,2.355282474,,,
07.394,2.507328031,,,
07.396,2.558009883,,,
07.398,2.519998494,,,
07.400,2.342612011,,,
07.402,2.342612011,,,
07.404,2.241248306,,,
07.406,2.17789599,,,
07.408,2.089202749,,,
07.410,2.076532285,,,
07.412,2.253918769,,,
07.414,2.481987105,,,
07.416,2.621362199,,,
07.418,2.355282474,,,
07.420,2.279259695,,,
07.422,2.317271084,,,
07.424,2.127214138,,,
07.426,2.203236916,,,
07.428,2.203236916,,,
07.430,2.266589232,,,
07.432,2.291930158,,,
07.434,2.114543675,,,
07.436,2.190566453,,,
07.438,2.481987105,,,
07.440,2.735396367,,,
07.442,2.481987105,,,
07.444,2.355282474,,,
07.446,2.21590738,,,
07.448,2.089202749,,,
07.450,2.089202749,,,
07.452,2.291930158,,,
07.454,2.494657568,,,
07.456,2.58335081,,,
07.458,2.431305252,,,
07.460,2.329941547,,,
07.462,2.190566453,,,
07.464,2.127214138,,,
07.466,2.304600621,,,
07.468,2.101873212,,,
07.470,2.051191359,,,
07.472,2.431305252,,,
07.474,2.558009883,,,
07.476,2.393293863,,,
07.478,2.481987105,,,
07.480,2.405964326,,,
07.482,2.431305252,,,
07.484,2.355282474,,,
07.486,2.317271084,,,
07.488,2.114543675,,,
07.490,2.051191359,,,
07.492,2.17789599,,,
07.494,2.443975715,,,
07.496,2.405964326,,,
07.498,2.405964326,,,
07.500,2.355282474,,,
07.502,2.431305252,,,
07.504,2.304600621,,,
07.506,2.3806234,,,
07.508,2.329941547,,,
07.510,2.519998494,,,
07.512,2.355282474,,,
07.514,2.456646178,,,
07.516,2.532668957,,,
07.518,2.507328031,,,
07.520,2.443975715,,,
07.522,2.17789599,,,
07.524,2.228577843,,,
07.526,2.58335081,,,
07.528,2.507328031,,,
07.530,2.405964326,,,
07.532,2.481987105,,,
07.534,2.570680346,,,
07.536,2.570680346,,,
07.538,2.697384977,,,
07.540,2.481987105,,,
07.542,2.114543675,,,
07.544,2.17789599,,,
07.546,2.139884601,,,
07.548,2.17789599,,,
07.550,2.367952937,,,
07.552,2.393293863,,,
07.554,2.279259695,,,
07.556,2.355282474,,,
07.558,2.659373588,,,
07.560,2.393293863,,,
07.562,2.127214138,,,
07.564,2.393293863,,,
07.566,2.3806234,,,
07.568,2.367952937,,,
07.570,2.21590738,,,
07.572,2.17789599,,,
07.574,2.21590738,,,
07.576,2.342612011,,,
07.578,2.329941547,,,
07.580,2.253918769,,,
07.582,2.342612011,,,
07.584,2.114543675,,,
07.586,2.203236916,,,
07.588,2.114543675,,,
07.590,2.114543675,,,
07.592,2.025850433,,,
07.594,2.241248306,,,
07.596,2.443975715,,,
07.598,2.355282474,,,
07.600,2.152555064,,,
07.602,2.228577843,,,
07.604,2.291930158,,,
07.606,2.317271084,,,
07.608,2.317271084,,,
07.610,2.241248306,,,
07.612,2.367952937,,,
07.614,2.266589232,,,
07.616,2.21590738,,,
07.618,2.114543675,,,
07.620,2.266589232,,,
07.622,2.038520896,,,
07.624,2.241248306,,,
07.626,2.342612011,,,
07.628,2.291930158,,,
07.630,2.266589232,,,
07.632,2.3806234,,,
07.634,2.58335081,,,
07.636,2.253918769,,,
07.638,2.317271084,,,
07.640,2.3806234,,,
07.642,1.924486728,,,
07.644,1.835793486,,,
07.646,1.873804876,,,
07.648,2.063861822,,,
07.650,2.063861822,,,
07.652,2.139884601,,,
07.654,2.3806234,,,
07.656,2.621362199,,,
07.658,2.874771461,,,
07.660,2.849430535,,,
07.662,2.874771461,,,
07.664,3.102839797,,,
07.666,3.292896743,,,
07.668,3.4449423,,,
07.670,3.774374341,,,
07.672,4.293863328,,,
07.674,4.407897496,,,
07.676,4.445908886,,,
07.678,4.319204255,,,
07.680,4.154488234,,,
07.682,3.825056194,,,
07.684,3.4449423,,,
07.686,3.242214891,,,
07.688,3.014146555,,,
07.690,2.74806683,,,
07.692,2.570680346,,,
07.694,2.355282474,,,
07.696,2.051191359,,,
07.698,2.152555064,,,
07.700,2.355282474,,,
07.702,2.000509507,,,
07.704,2.025850433,,,
07.706,1.975168581,,,
07.708,2.241248306,,,
07.710,2.304600621,,,
07.712,2.367952937,,,
07.714,2.570680346,,,
07.716,2.469316642,,,
07.718,2.329941547,,,
07.720,2.329941547,,,
07.722,2.165225527,,,
07.724,2.21590738,,,
07.726,2.367952937,,,
07.728,2.228577843,,,
07.730,2.190566453,,,
07.732,2.304600621,,,
07.734,2.494657568,,,
07.736,2.532668957,,,
07.738,2.481987105,,,
07.740,2.3806234,,,
07.742,2.355282474,,,
07.744,2.228577843,,,
07.746,2.089202749,,,
07.748,2.114543675,,,
07.750,2.317271084,,,
07.752,2.317271084,,,
07.754,2.519998494,,,
07.756,2.697384977,,,
07.758,2.456646178,,,
07.760,2.393293863,,,
07.762,2.3806234,,,
07.764,2.317271084,,,
07.766,2.367952937,,,
07.768,2.469316642,,,
07.770,2.443975715,,,
07.772,2.532668957,,,
07.774,2.393293863,,,
07.776,2.469316642,,,
07.778,2.431305252,,,
07.780,2.355282474,,,
07.782,2.469316642,,,
07.784,2.507328031,,,
07.786,2.469316642,,,
07.788,2.393293863,,,
07.790,2.304600621,,,
07.792,2.405964326,,,
07.794,2.672044051,,,
07.796,2.722725904,,,
07.798,2.672044051,,,
07.800,2.481987105,,,
07.802,2.279259695,,,
07.804,2.329941547,,,
07.806,2.456646178,,,
07.808,2.304600621,,,
07.810,2.329941547,,,
07.812,2.760737293,,,
07.814,2.74806683,,,
07.816,2.74806683,,,
07.818,2.659373588,,,
07.820,2.279259695,,,
07.822,2.165225527,,,
07.824,2.355282474,,,
07.826,2.532668957,,,
07.828,2.659373588,,,
07.830,2.836760072,,,
07.832,2.849430535,,,
07.834,2.836760072,,,
07.836,2.874771461,,,
07.838,2.646703125,,,
07.840,2.684714514,,,
07.842,2.621362199,,,
07.844,2.469316642,,,
07.846,2.532668957,,,
07.848,2.596021273,,,
07.850,2.722725904,,,
07.852,2.925453313,,,
07.854,2.988805629,,,
07.856,2.976135166,,,
07.858,3.07749887,,,
07.860,2.862100998,,,
07.862,2.786078219,,,
07.864,2.786078219,,,
07.866,2.862100998,,,
07.868,2.824089608,,,
07.870,2.938123776,,,
07.872,2.963464703,,,
07.874,2.963464703,,,
07.876,2.963464703,,,
07.878,3.166192112,,,
07.880,2.849430535,,,
07.882,3.026817018,,,
07.884,2.824089608,,,
07.886,2.874771461,,,
07.888,2.963464703,,,
07.890,3.102839797,,,
07.892,3.368919522,,,
07.894,3.229544428,,,
07.896,3.178862575,,,
07.898,3.140851186,,,
07.900,3.090169334,,,
07.902,2.988805629,,,
07.904,2.722725904,,,
07.906,3.039487481,,,
07.908,3.090169334,,,
07.910,3.292896743,,,
07.912,3.254885354,,,
07.914,3.090169334,,,
07.916,3.001476092,,,
07.918,3.102839797,,,
07.920,2.811419145,,,
07.922,2.786078219,,,
07.924,2.773407756,,,
07.926,2.91278285,,,
07.928,2.887441924,,,
07.930,3.026817018,,,
07.932,2.874771461,,,
07.934,2.74806683,,,
07.936,2.836760072,,,
07.938,2.874771461,,,
07.940,2.659373588,,,
07.942,2.570680346,,,
07.944,2.431305252,,,
07.946,2.3806234,,,
07.948,2.443975715,,,
07.950,2.722725904,,,
07.952,2.634032662,,,
07.954,2.469316642,,,
07.956,2.684714514,,,
07.958,2.722725904,,,
07.960,2.456646178,,,
07.962,2.190566453,,,
07.964,2.152555064,,,
07.966,2.304600621,,,
07.968,2.697384977,,,
07.970,2.672044051,,,
07.972,2.494657568,,,
07.974,2.58335081,,,
07.976,2.558009883,,,
07.978,2.558009883,,,
07.980,2.393293863,,,
07.982,2.21590738,,,
07.984,2.304600621,,,
07.986,2.469316642,,,
07.988,2.469316642,,,
07.990,2.481987105,,,
07.992,2.519998494,,,
07.994,2.3806234,,,
07.996,2.076532285,,,
07.998,2.431305252,,,
08.000,2.494657568,,,