Time (s),Signal (V),Peak Time (s) ,Sample #,Type
00.000,2.235111411,00.704,352,N
00.002,2.248008275,00.938,469,t
00.004,2.273802004,01.454,727,N
00.006,2.26090514,01.678,839,t
00.008,2.209317681,02.270,1135,N
00.010,2.222214546,02.492,1246,t
00.012,2.196420817,03.198,1599,N
00.014,2.196420817,03.430,1715,t
00.016,2.196420817,04.134,2067,N
00.018,2.235111411,04.366,2183,t
00.020,2.299595733,05.050,2525,N
00.022,2.338286327,05.276,2638,t
00.024,2.312492598,05.984,2992,N
00.026,2.299595733,06.218,3109,t
00.028,2.273802004,06.872,3436,N
00.030,2.248008275,07.112,3556,t
00.032,2.235111411,07.740,3870,N
00.034,2.248008275,07.960,3980,t
00.036,2.273802004,08.586,4293,N
00.038,2.351183192,08.814,4407,t
00.040,2.325389462,,,
00.042,2.338286327,,,
00.044,2.351183192,,,
00.046,2.351183192,,,
00.048,2.312492598,,,
00.050,2.299595733,,,
00.052,2.312492598,,,
00.054,2.312492598,,,
00.056,2.312492598,,,
00.058,2.338286327,,,
00.060,2.351183192,,,
00.062,2.338286327,,,
00.064,2.351183192,,,
00.066,2.376976921,,,
00.068,2.364080056,,,
00.070,2.338286327,,,
00.072,2.312492598,,,
00.074,2.312492598,,,
00.076,2.325389462,,,
00.078,2.40277065,,,
00.080,2.415667514,,,
00.082,2.428564379,,,
00.084,2.467254973,,,
00.086,2.454358108,,,
00.088,2.441461244,,,
00.090,2.389873785,,,
00.092,2.364080056,,,
00.094,2.376976921,,,
00.096,2.376976921,,,
00.098,2.415667514,,,
00.100,2.441461244,,,
00.102,2.454358108,,,
00.104,2.480151837,,,
00.106,2.505945566,,,
00.108,2.454358108,,,
00.110,2.441461244,,,
00.112,2.467254973,,,
00.114,2.467254973,,,
00.116,2.480151837,,,
00.118,2.518842431,,,
00.120,2.557533025,,,
00.122,2.596223618,,,
00.124,2.609120483,,,
00.126,2.570429889,,,
00.128,2.557533025,,,
00.130,2.570429889,,,
00.132,2.557533025,,,
00.134,2.557533025,,,
00.136,2.634914212,,,
00.138,2.647811076,,,
00.140,2.68650167,,,
00.142,2.725192264,,,
00.144,2.725192264,,,
00.146,2.750985993,,,
00.148,2.725192264,,,
00.150,2.712295399,,,
00.152,2.712295399,,,
00.154,2.699398535,,,
00.156,2.776779722,,,
00.158,2.854160909,,,
00.160,2.867057774,,,
00.162,2.867057774,,,
00.164,2.905748368,,,
00.166,2.905748368,,,
00.168,2.854160909,,,
00.170,2.867057774,,,
00.172,2.841264045,,,
00.174,2.841264045,,,
00.176,2.867057774,,,
00.178,2.918645232,,,
00.180,2.944438961,,,
00.182,2.944438961,,,
00.184,2.970232691,,,
00.186,2.944438961,,,
00.188,2.918645232,,,
00.190,2.905748368,,,
00.192,2.879954639,,,
00.194,2.867057774,,,
00.196,2.879954639,,,
00.198,2.854160909,,,
00.200,2.879954639,,,
00.202,2.879954639,,,
00.204,2.892851503,,,
00.206,2.82836718,,,
00.208,2.802573451,,,
00.210,2.738089128,,,
00.212,2.68650167,,,
00.214,2.634914212,,,
00.216,2.647811076,,,
00.218,2.673604806,,,
00.220,2.673604806,,,
00.222,2.634914212,,,
00.224,2.634914212,,,
00.226,2.583326754,,,
00.228,2.557533025,,,
00.230,2.518842431,,,
00.232,2.467254973,,,
00.234,2.441461244,,,
00.236,2.454358108,,,
00.238,2.454358108,,,
00.240,2.467254973,,,
00.242,2.480151837,,,
00.244,2.454358108,,,
00.246,2.480151837,,,
00.248,2.493048702,,,
00.250,2.531739295,,,
00.252,2.54463616,,,
00.254,2.570429889,,,
00.256,2.622017347,,,
00.258,2.673604806,,,
00.260,2.68650167,,,
00.262,2.763882858,,,
00.264,2.750985993,,,
00.266,2.68650167,,,
00.268,2.673604806,,,
00.270,2.634914212,,,
00.272,2.660707941,,,
00.274,2.660707941,,,
00.276,2.68650167,,,
00.278,2.699398535,,,
00.280,2.738089128,,,
00.282,2.750985993,,,
00.284,2.789676587,,,
00.286,2.750985993,,,
00.288,2.712295399,,,
00.290,2.699398535,,,
00.292,2.699398535,,,
00.294,2.699398535,,,
00.296,2.712295399,,,
00.298,2.738089128,,,
00.300,2.763882858,,,
00.302,2.776779722,,,
00.304,2.815470316,,,
00.306,2.802573451,,,
00.308,2.750985993,,,
00.310,2.750985993,,,
00.312,2.750985993,,,
00.314,2.750985993,,,
00.316,2.776779722,,,
00.318,2.789676587,,,
00.320,2.776779722,,,
00.322,2.815470316,,,
00.324,2.815470316,,,
00.326,2.815470316,,,
00.328,2.789676587,,,
00.330,2.725192264,,,
00.332,2.712295399,,,
00.334,2.712295399,,,
00.336,2.789676587,,,
00.338,2.815470316,,,
00.340,2.802573451,,,
00.342,2.841264045,,,
00.344,2.82836718,,,
00.346,2.789676587,,,
00.348,2.776779722,,,
00.350,2.776779722,,,
00.352,2.750985993,,,
00.354,2.763882858,,,
00.356,2.776779722,,,
00.358,2.815470316,,,
00.360,2.815470316,,,
00.362,2.841264045,,,
00.364,2.82836718,,,
00.366,2.815470316,,,
00.368,2.802573451,,,
00.370,2.815470316,,,
00.372,2.776779722,,,
00.374,2.776779722,,,
00.376,2.802573451,,,
00.378,2.82836718,,,
00.380,2.82836718,,,
00.382,2.815470316,,,
00.384,2.802573451,,,
00.386,2.763882858,,,
00.388,2.763882858,,,
00.390,2.738089128,,,
00.392,2.750985993,,,
00.394,2.763882858,,,
00.396,2.802573451,,,
00.398,2.802573451,,,
00.400,2.789676587,,,
00.402,2.802573451,,,
00.404,2.789676587,,,
00.406,2.738089128,,,
00.408,2.738089128,,,
00.410,2.738089128,,,
00.412,2.725192264,,,
00.414,2.750985993,,,
00.416,2.776779722,,,
00.418,2.789676587,,,
00.420,2.750985993,,,
00.422,2.763882858,,,
00.424,2.750985993,,,
00.426,2.725192264,,,
00.428,2.712295399,,,
00.430,2.725192264,,,
00.432,2.68650167,,,
00.434,2.712295399,,,
00.436,2.725192264,,,
00.438,2.738089128,,,
00.440,2.763882858,,,
00.442,2.802573451,,,
00.444,2.763882858,,,
00.446,2.738089128,,,
00.448,2.699398535,,,
00.450,2.712295399,,,
00.452,2.699398535,,,
00.454,2.712295399,,,
00.456,2.738089128,,,
00.458,2.738089128,,,
00.460,2.750985993,,,
00.462,2.750985993,,,
00.464,2.699398535,,,
00.466,2.660707941,,,
00.468,2.647811076,,,
00.470,2.634914212,,,
00.472,2.634914212,,,
00.474,2.647811076,,,
00.476,2.68650167,,,
00.478,2.673604806,,,
00.480,2.712295399,,,
00.482,2.776779722,,,
00.484,2.738089128,,,
00.486,2.725192264,,,
00.488,2.647811076,,,
00.490,2.660707941,,,
00.492,2.622017347,,,
00.494,2.647811076,,,
00.496,2.660707941,,,
00.498,2.68650167,,,
00.500,2.712295399,,,
00.502,2.750985993,,,
00.504,2.725192264,,,
00.506,2.68650167,,,
00.508,2.673604806,,,
00.510,2.68650167,,,
00.512,2.673604806,,,
00.514,2.699398535,,,
00.516,2.738089128,,,
00.518,2.802573451,,,
00.520,2.789676587,,,
00.522,2.802573451,,,
00.524,2.776779722,,,
00.526,2.763882858,,,
00.528,2.738089128,,,
00.530,2.725192264,,,
00.532,2.699398535,,,
00.534,2.738089128,,,
00.536,2.815470316,,,
00.538,2.802573451,,,
00.540,2.815470316,,,
00.542,2.815470316,,,
00.544,2.789676587,,,
00.546,2.776779722,,,
00.548,2.763882858,,,
00.550,2.725192264,,,
00.552,2.712295399,,,
00.554,2.763882858,,,
00.556,2.841264045,,,
00.558,2.867057774,,,
00.560,2.867057774,,,
00.562,2.892851503,,,
00.564,2.867057774,,,
00.566,2.763882858,,,
00.568,2.750985993,,,
00.570,2.750985993,,,
00.572,2.699398535,,,
00.574,2.699398535,,,
00.576,2.712295399,,,
00.578,2.699398535,,,
00.580,2.68650167,,,
00.582,2.68650167,,,
00.584,2.673604806,,,
00.586,2.596223618,,,
00.588,2.622017347,,,
00.590,2.609120483,,,
00.592,2.622017347,,,
00.594,2.647811076,,,
00.596,2.660707941,,,
00.598,2.660707941,,,
00.600,2.699398535,,,
00.602,2.647811076,,,
00.604,2.596223618,,,
00.606,2.583326754,,,
00.608,2.570429889,,,
00.610,2.54463616,,,
00.612,2.570429889,,,
00.614,2.570429889,,,
00.616,2.596223618,,,
00.618,2.609120483,,,
00.620,2.609120483,,,
00.622,2.609120483,,,
00.624,2.609120483,,,
00.626,2.583326754,,,
00.628,2.54463616,,,
00.630,2.505945566,,,
00.632,2.518842431,,,
00.634,2.54463616,,,
00.636,2.570429889,,,
00.638,2.596223618,,,
00.640,2.609120483,,,
00.642,2.596223618,,,
00.644,2.54463616,,,
00.646,2.518842431,,,
00.648,2.531739295,,,
00.650,2.505945566,,,
00.652,2.531739295,,,
00.654,2.583326754,,,
00.656,2.531739295,,,
00.658,2.557533025,,,
00.660,2.583326754,,,
00.662,2.557533025,,,
00.664,2.518842431,,,
00.666,2.454358108,,,
00.668,2.428564379,,,
00.670,2.389873785,,,
00.672,2.376976921,,,
00.674,2.389873785,,,
00.676,2.415667514,,,
00.678,2.441461244,,,
00.680,2.531739295,,,
00.682,2.622017347,,,
00.684,2.738089128,,,
00.686,2.867057774,,,
00.688,2.970232691,,,
00.690,3.112098201,,,
00.692,3.318448034,,,
00.694,3.550591596,,,
00.696,3.821425752,,,
00.698,4.118053636,,,
00.700,4.311506605,,,
00.702,4.350197199,,,
00.704,4.221228553,,,
00.706,4.079363043,,,
00.708,3.924600668,,,
00.710,3.705353971,,,
00.712,3.511901002,,,
00.714,3.318448034,,,
00.716,3.047613878,,,
00.718,2.712295399,,,
00.720,2.480151837,,,
00.722,2.299595733,,,
00.724,2.196420817,,,
00.726,2.196420817,,,
00.728,2.222214546,,,
00.730,2.235111411,,,
00.732,2.299595733,,,
00.734,2.40277065,,,
00.736,2.480151837,,,
00.738,2.54463616,,,
00.740,2.557533025,,,
00.742,2.54463616,,,
00.744,2.493048702,,,
00.746,2.441461244,,,
00.748,2.40277065,,,
00.750,2.389873785,,,
00.752,2.428564379,,,
00.754,2.454358108,,,
00.756,2.467254973,,,
00.758,2.518842431,,,
00.760,2.518842431,,,
00.762,2.505945566,,,
00.764,2.454358108,,,
00.766,2.467254973,,,
00.768,2.415667514,,,
00.770,2.40277065,,,
00.772,2.428564379,,,
00.774,2.428564379,,,
00.776,2.454358108,,,
00.778,2.480151837,,,
00.780,2.454358108,,,
00.782,2.467254973,,,
00.784,2.467254973,,,
00.786,2.441461244,,,
00.788,2.454358108,,,
00.790,2.428564379,,,
00.792,2.454358108,,,
00.794,2.493048702,,,
00.796,2.505945566,,,
00.798,2.518842431,,,
00.800,2.557533025,,,
00.802,2.518842431,,,
00.804,2.480151837,,,
00.806,2.454358108,,,
00.808,2.441461244,,,
00.810,2.441461244,,,
00.812,2.467254973,,,
00.814,2.518842431,,,
00.816,2.518842431,,,
00.818,2.531739295,,,
00.820,2.518842431,,,
00.822,2.480151837,,,
00.824,2.505945566,,,
00.826,2.467254973,,,
00.828,2.480151837,,,
00.830,2.467254973,,,
00.832,2.493048702,,,
00.834,2.505945566,,,
00.836,2.54463616,,,
00.838,2.557533025,,,
00.840,2.583326754,,,
00.842,2.583326754,,,
00.844,2.570429889,,,
00.846,2.557533025,,,
00.848,2.518842431,,,
00.850,2.531739295,,,
00.852,2.531739295,,,
00.854,2.557533025,,,
00.856,2.570429889,,,
00.858,2.596223618,,,
00.860,2.609120483,,,
00.862,2.622017347,,,
00.864,2.622017347,,,
00.866,2.634914212,,,
00.868,2.634914212,,,
00.870,2.622017347,,,
00.872,2.660707941,,,
00.874,2.699398535,,,
00.876,2.725192264,,,
00.878,2.725192264,,,
00.880,2.763882858,,,
00.882,2.750985993,,,
00.884,2.750985993,,,
00.886,2.738089128,,,
00.888,2.712295399,,,
00.890,2.712295399,,,
00.892,2.750985993,,,
00.894,2.789676587,,,
00.896,2.841264045,,,
00.898,2.854160909,,,
00.900,2.867057774,,,
00.902,2.841264045,,,
00.904,2.867057774,,,
00.906,2.879954639,,,
00.908,2.854160909,,,
00.910,2.867057774,,,
00.912,2.905748368,,,
00.914,2.970232691,,,
00.916,2.983129555,,,
00.918,2.99602642,,,
00.920,2.983129555,,,
00.922,2.957335826,,,
00.924,2.931542097,,,
00.926,2.918645232,,,
00.928,2.918645232,,,
00.930,2.918645232,,,
00.932,2.918645232,,,
00.934,2.970232691,,,
00.936,2.983129555,,,
00.938,2.983129555,,,
00.940,2.957335826,,,
00.942,2.892851503,,,
00.944,2.841264045,,,
00.946,2.802573451,,,
00.948,2.789676587,,,
00.950,2.776779722,,,
00.952,2.789676587,,,
00.954,2.750985993,,,
00.956,2.789676587,,,
00.958,2.789676587,,,
00.960,2.750985993,,,
00.962,2.699398535,,,
00.964,2.660707941,,,
00.966,2.634914212,,,
00.968,2.596223618,,,
00.970,2.531739295,,,
00.972,2.493048702,,,
00.974,2.518842431,,,
00.976,2.518842431,,,
00.978,2.505945566,,,
00.980,2.480151837,,,
00.982,2.441461244,,,
00.984,2.40277065,,,
00.986,2.389873785,,,
00.988,2.364080056,,,
00.990,2.376976921,,,
00.992,2.428564379,,,
00.994,2.454358108,,,
00.996,2.428564379,,,
00.998,2.441461244,,,
01.000,2.428564379,,,
01.002,2.376976921,,,
01.004,2.351183192,,,
01.006,2.312492598,,,
01.008,2.286698869,,,
01.010,2.312492598,,,
01.012,2.351183192,,,
01.014,2.338286327,,,
01.016,2.389873785,,,
01.018,2.364080056,,,
01.020,2.376976921,,,
01.022,2.325389462,,,
01.024,2.312492598,,,
01.026,2.299595733,,,
01.028,2.299595733,,,
01.030,2.338286327,,,
01.032,2.338286327,,,
01.034,2.364080056,,,
01.036,2.40277065,,,
01.038,2.376976921,,,
01.040,2.376976921,,,
01.042,2.325389462,,,
01.044,2.312492598,,,
01.046,2.312492598,,,
01.048,2.299595733,,,
01.050,2.312492598,,,
01.052,2.325389462,,,
01.054,2.351183192,,,
01.056,2.312492598,,,
01.058,2.376976921,,,
01.060,2.312492598,,,
01.062,2.325389462,,,
01.064,2.325389462,,,
01.066,2.299595733,,,
01.068,2.299595733,,,
01.070,2.338286327,,,
01.072,2.351183192,,,
01.074,2.351183192,,,
01.076,2.351183192,,,
01.078,2.351183192,,,
01.080,2.325389462,,,
01.082,2.312492598,,,
01.084,2.312492598,,,
01.086,2.299595733,,,
01.088,2.312492598,,,
01.090,2.376976921,,,
01.092,2.376976921,,,
01.094,2.389873785,,,
01.096,2.40277065,,,
01.098,2.415667514,,,
01.100,2.389873785,,,
01.102,2.364080056,,,
01.104,2.338286327,,,
01.106,2.325389462,,,
01.108,2.312492598,,,
01.110,2.338286327,,,
01.112,2.351183192,,,
01.114,2.40277065,,,
01.116,2.415667514,,,
01.118,2.428564379,,,
01.120,2.415667514,,,
01.122,2.40277065,,,
01.124,2.376976921,,,
01.126,2.364080056,,,
01.128,2.351183192,,,
01.130,2.376976921,,,
01.132,2.376976921,,,
01.134,2.389873785,,,
01.136,2.415667514,,,
01.138,2.415667514,,,
01.140,2.389873785,,,
01.142,2.40277065,,,
01.144,2.364080056,,,
01.146,2.351183192,,,
01.148,2.338286327,,,
01.150,2.338286327,,,
01.152,2.376976921,,,
01.154,2.389873785,,,
01.156,2.441461244,,,
01.158,2.428564379,,,
01.160,2.376976921,,,
01.162,2.376976921,,,
01.164,2.364080056,,,
01.166,2.325389462,,,
01.168,2.299595733,,,
01.170,2.351183192,,,
01.172,2.351183192,,,
01.174,2.376976921,,,
01.176,2.40277065,,,
01.178,2.389873785,,,
01.180,2.351183192,,,
01.182,2.338286327,,,
01.184,2.40277065,,,
01.186,2.325389462,,,
01.188,2.312492598,,,
01.190,2.351183192,,,
01.192,2.376976921,,,
01.194,2.364080056,,,
01.196,2.415667514,,,
01.198,2.40277065,,,
01.200,2.351183192,,,
01.202,2.325389462,,,
01.204,2.312492598,,,
01.206,2.299595733,,,
01.208,2.299595733,,,
01.210,2.312492598,,,
01.212,2.351183192,,,
01.214,2.351183192,,,
01.216,2.364080056,,,
01.218,2.40277065,,,
01.220,2.364080056,,,
01.222,2.338286327,,,
01.224,2.325389462,,,
01.226,2.273802004,,,
01.228,2.273802004,,,
01.230,2.325389462,,,
01.232,2.338286327,,,
01.234,2.364080056,,,
01.236,2.364080056,,,
01.238,2.364080056,,,
01.240,2.338286327,,,
01.242,2.312492598,,,
01.244,2.325389462,,,
01.246,2.325389462,,,
01.248,2.351183192,,,
01.250,2.364080056,,,
01.252,2.389873785,,,
01.254,2.441461244,,,
01.256,2.428564379,,,
01.258,2.389873785,,,
01.260,2.351183192,,,
01.262,2.376976921,,,
01.264,2.364080056,,,
01.266,2.351183192,,,
01.268,2.351183192,,,
01.270,2.389873785,,,
01.272,2.415667514,,,
01.274,2.428564379,,,
01.276,2.493048702,,,
01.278,2.441461244,,,
01.280,2.441461244,,,
01.282,2.415667514,,,
01.284,2.40277065,,,
01.286,2.389873785,,,
01.288,2.389873785,,,
01.290,2.428564379,,,
01.292,2.467254973,,,
01.294,2.493048702,,,
01.296,2.505945566,,,
01.298,2.493048702,,,
01.300,2.467254973,,,
01.302,2.467254973,,,
01.304,2.454358108,,,
01.306,2.454358108,,,
01.308,2.454358108,,,
01.310,2.454358108,,,
01.312,2.467254973,,,
01.314,2.505945566,,,
01.316,2.531739295,,,
01.318,2.505945566,,,
01.320,2.428564379,,,
01.322,2.389873785,,,
01.324,2.364080056,,,
01.326,2.312492598,,,
01.328,2.325389462,,,
01.330,2.338286327,,,
01.332,2.351183192,,,
01.334,2.338286327,,,
01.336,2.389873785,,,
01.338,2.364080056,,,
01.340,2.299595733,,,
01.342,2.299595733,,,
01.344,2.273802004,,,
01.346,2.248008275,,,
01.348,2.286698869,,,
01.350,2.312492598,,,
01.352,2.325389462,,,
01.354,2.325389462,,,
01.356,2.364080056,,,
01.358,2.312492598,,,
01.360,2.312492598,,,
01.362,2.299595733,,,
01.364,2.286698869,,,
01.366,2.286698869,,,
01.368,2.299595733,,,
01.370,2.286698869,,,
01.372,2.286698869,,,
01.374,2.286698869,,,
01.376,2.286698869,,,
01.378,2.286698869,,,
01.380,2.248008275,,,
01.382,2.235111411,,,
01.384,2.248008275,,,
01.386,2.196420817,,,
01.388,2.222214546,,,
01.390,2.248008275,,,
01.392,2.299595733,,,
01.394,2.338286327,,,
01.396,2.338286327,,,
01.398,2.312492598,,,
01.400,2.299595733,,,
01.402,2.235111411,,,
01.404,2.235111411,,,
01.406,2.196420817,,,
01.408,2.196420817,,,
01.410,2.248008275,,,
01.412,2.26090514,,,
01.414,2.273802004,,,
01.416,2.26090514,,,
01.418,2.209317681,,,
01.420,2.183523952,,,
01.422,2.157730223,,,
01.424,2.0932459,,,
01.426,2.054555307,,,
01.428,2.106142765,,,
01.430,2.183523952,,,
01.432,2.338286327,,,
01.434,2.505945566,,,
01.436,2.647811076,,,
01.438,2.776779722,,,
01.440,2.892851503,,,
01.442,3.034717013,,,
01.444,3.163685659,,,
01.446,3.460313544,,,
01.448,3.782735158,,,
01.450,4.105156772,,,
01.452,4.234125418,,,
01.454,4.15674423,,,
01.456,4.040672449,,,
01.458,3.885910074,,,
01.460,3.705353971,,,
01.462,3.460313544,,,
01.464,3.241066846,,,
01.466,2.957335826,,,
01.468,2.673604806,,,
01.470,2.376976921,,,
01.472,2.157730223,,,
01.474,2.054555307,,,
01.476,2.080349036,,,
01.478,2.131936494,,,
01.480,2.157730223,,,
01.482,2.170627088,,,
01.484,2.235111411,,,
01.486,2.325389462,,,
01.488,2.312492598,,,
01.490,2.376976921,,,
01.492,2.364080056,,,
01.494,2.338286327,,,
01.496,2.351183192,,,
01.498,2.351183192,,,
01.500,2.286698869,,,
01.502,2.273802004,,,
01.504,2.248008275,,,
01.506,2.26090514,,,
01.508,2.273802004,,,
01.510,2.299595733,,,
01.512,2.325389462,,,
01.514,2.376976921,,,
01.516,2.338286327,,,
01.518,2.338286327,,,
01.520,2.312492598,,,
01.522,2.299595733,,,
01.524,2.312492598,,,
01.526,2.299595733,,,
01.528,2.351183192,,,
01.530,2.364080056,,,
01.532,2.389873785,,,
01.534,2.428564379,,,
01.536,2.389873785,,,
01.538,2.338286327,,,
01.540,2.325389462,,,
01.542,2.312492598,,,
01.544,2.325389462,,,
01.546,2.312492598,,,
01.548,2.376976921,,,
01.550,2.389873785,,,
01.552,2.40277065,,,
01.554,2.428564379,,,
01.556,2.428564379,,,
01.558,2.40277065,,,
01.560,2.376976921,,,
01.562,2.389873785,,,
01.564,2.40277065,,,
01.566,2.415667514,,,
01.568,2.467254973,,,
01.570,2.505945566,,,
01.572,2.518842431,,,
01.574,2.518842431,,,
01.576,2.493048702,,,
01.578,2.467254973,,,
01.580,2.428564379,,,
01.582,2.428564379,,,
01.584,2.428564379,,,
01.586,2.480151837,,,
01.588,2.493048702,,,
01.590,2.518842431,,,
01.592,2.570429889,,,
01.594,2.609120483,,,
01.596,2.622017347,,,
01.598,2.583326754,,,
01.600,2.557533025,,,
01.602,2.570429889,,,
01.604,2.557533025,,,
01.606,2.570429889,,,
01.608,2.570429889,,,
01.610,2.609120483,,,
01.612,2.622017347,,,
01.614,2.634914212,,,
01.616,2.622017347,,,
01.618,2.622017347,,,
01.620,2.622017347,,,
01.622,2.622017347,,,
01.624,2.647811076,,,
01.626,2.660707941,,,
01.628,2.712295399,,,
01.630,2.750985993,,,
01.632,2.776779722,,,
01.634,2.789676587,,,
01.636,2.815470316,,,
01.638,2.815470316,,,
01.640,2.841264045,,,
01.642,2.802573451,,,
01.644,2.789676587,,,
01.646,2.815470316,,,
01.648,2.892851503,,,
01.650,2.905748368,,,
01.652,2.944438961,,,
01.654,2.970232691,,,
01.656,2.983129555,,,
01.658,2.944438961,,,
01.660,2.970232691,,,
01.662,2.970232691,,,
01.664,2.957335826,,,
01.666,2.99602642,,,
01.668,3.034717013,,,
01.670,3.060510742,,,
01.672,3.047613878,,,
01.674,3.073407607,,,
01.676,3.034717013,,,
01.678,3.034717013,,,
01.680,2.983129555,,,
01.682,2.970232691,,,
01.684,2.944438961,,,
01.686,2.944438961,,,
01.688,2.983129555,,,
01.690,2.983129555,,,
01.692,3.021820149,,,
01.694,3.047613878,,,
01.696,2.983129555,,,
01.698,2.957335826,,,
01.700,2.905748368,,,
01.702,2.879954639,,,
01.704,2.854160909,,,
01.706,2.841264045,,,
01.708,2.815470316,,,
01.710,2.802573451,,,
01.712,2.789676587,,,
01.714,2.738089128,,,
01.716,2.725192264,,,
01.718,2.673604806,,,
01.720,2.647811076,,,
01.722,2.622017347,,,
01.724,2.609120483,,,
01.726,2.622017347,,,
01.728,2.609120483,,,
01.730,2.609120483,,,
01.732,2.583326754,,,
01.734,2.570429889,,,
01.736,2.557533025,,,
01.738,2.505945566,,,
01.740,2.480151837,,,
01.742,2.454358108,,,
01.744,2.454358108,,,
01.746,2.480151837,,,
01.748,2.493048702,,,
01.750,2.480151837,,,
01.752,2.505945566,,,
01.754,2.480151837,,,
01.756,2.454358108,,,
01.758,2.40277065,,,
01.760,2.40277065,,,
01.762,2.351183192,,,
01.764,2.364080056,,,
01.766,2.389873785,,,
01.768,2.415667514,,,
01.770,2.441461244,,,
01.772,2.467254973,,,
01.774,2.441461244,,,
01.776,2.40277065,,,
01.778,2.389873785,,,
01.780,2.389873785,,,
01.782,2.389873785,,,
01.784,2.389873785,,,
01.786,2.389873785,,,
01.788,2.428564379,,,
01.790,2.467254973,,,
01.792,2.493048702,,,
01.794,2.480151837,,,
01.796,2.467254973,,,
01.798,2.40277065,,,
01.800,2.415667514,,,
01.802,2.415667514,,,
01.804,2.40277065,,,
01.806,2.389873785,,,
01.808,2.40277065,,,
01.810,2.40277065,,,
01.812,2.454358108,,,
01.814,2.493048702,,,
01.816,2.441461244,,,
01.818,2.428564379,,,
01.820,2.40277065,,,
01.822,2.376976921,,,
01.824,2.376976921,,,
01.826,2.415667514,,,
01.828,2.454358108,,,
01.830,2.480151837,,,
01.832,2.493048702,,,
01.834,2.493048702,,,
01.836,2.441461244,,,
01.838,2.428564379,,,
01.840,2.364080056,,,
01.842,2.389873785,,,
01.844,2.389873785,,,
01.846,2.40277065,,,
01.848,2.467254973,,,
01.850,2.493048702,,,
01.852,2.505945566,,,
01.854,2.518842431,,,
01.856,2.454358108,,,
01.858,2.428564379,,,
01.860,2.389873785,,,
01.862,2.364080056,,,
01.864,2.40277065,,,
01.866,2.428564379,,,
01.868,2.467254973,,,
01.870,2.467254973,,,
01.872,2.480151837,,,
01.874,2.493048702,,,
01.876,2.454358108,,,
01.878,2.441461244,,,
01.880,2.40277065,,,
01.882,2.389873785,,,
01.884,2.389873785,,,
01.886,2.415667514,,,
01.888,2.454358108,,,
01.890,2.467254973,,,
01.892,2.493048702,,,
01.894,2.505945566,,,
01.896,2.454358108,,,
01.898,2.415667514,,,
01.900,2.40277065,,,
01.902,2.376976921,,,
01.904,2.389873785,,,
01.906,2.441461244,,,
01.908,2.441461244,,,
01.910,2.454358108,,,
01.912,2.480151837,,,
01.914,2.493048702,,,
01.916,2.467254973,,,
01.918,2.428564379,,,
01.920,2.415667514,,,
01.922,2.40277065,,,
01.924,2.415667514,,,
01.926,2.441461244,,,
01.928,2.441461244,,,
01.930,2.441461244,,,
01.932,2.428564379,,,
01.934,2.428564379,,,
01.936,2.428564379,,,
01.938,2.415667514,,,
01.940,2.389873785,,,
01.942,2.389873785,,,
01.944,2.40277065,,,
01.946,2.428564379,,,
01.948,2.428564379,,,
01.950,2.441461244,,,
01.952,2.441461244,,,
01.954,2.428564379,,,
01.956,2.389873785,,,
01.958,2.389873785,,,
01.960,2.389873785,,,
01.962,2.364080056,,,
01.964,2.376976921,,,
01.966,2.40277065,,,
01.968,2.428564379,,,
01.970,2.441461244,,,
01.972,2.428564379,,,
01.974,2.415667514,,,
01.976,2.389873785,,,
01.978,2.376976921,,,
01.980,2.364080056,,,
01.982,2.351183192,,,
01.984,2.389873785,,,
01.986,2.40277065,,,
01.988,2.415667514,,,
01.990,2.441461244,,,
01.992,2.454358108,,,
01.994,2.428564379,,,
01.996,2.389873785,,,
01.998,2.376976921,,,
02.000,2.338286327,,,
02.002,2.338286327,,,
02.004,2.338286327,,,
02.006,2.364080056,,,
02.008,2.351183192,,,
02.010,2.389873785,,,
02.012,2.428564379,,,
02.014,2.389873785,,,
02.016,2.351183192,,,
02.018,2.351183192,,,
02.020,2.376976921,,,
02.022,2.364080056,,,
02.024,2.351183192,,,
02.026,2.389873785,,,
02.028,2.40277065,,,
02.030,2.415667514,,,
02.032,2.441461244,,,
02.034,2.428564379,,,
02.036,2.389873785,,,
02.038,2.351183192,,,
02.040,2.338286327,,,
02.042,2.351183192,,,
02.044,2.40277065,,,
02.046,2.415667514,,,
02.048,2.428564379,,,
02.050,2.454358108,,,
02.052,2.441461244,,,
02.054,2.428564379,,,
02.056,2.428564379,,,
02.058,2.415667514,,,
02.060,2.454358108,,,
02.062,2.480151837,,,
02.064,2.518842431,,,
02.066,2.622017347,,,
02.068,2.634914212,,,
02.070,2.673604806,,,
02.072,2.712295399,,,
02.074,2.712295399,,,
02.076,2.68650167,,,
02.078,2.68650167,,,
02.080,2.699398535,,,
02.082,2.673604806,,,
02.084,2.712295399,,,
02.086,2.725192264,,,
02.088,2.738089128,,,
02.090,2.763882858,,,
02.092,2.776779722,,,
02.094,2.789676587,,,
02.096,2.82836718,,,
02.098,2.854160909,,,
02.100,2.82836718,,,
02.102,2.802573451,,,
02.104,2.841264045,,,
02.106,2.879954639,,,
02.108,2.918645232,,,
02.110,2.931542097,,,
02.112,2.905748368,,,
02.114,2.892851503,,,
02.116,2.879954639,,,
02.118,2.905748368,,,
02.120,2.892851503,,,
02.122,2.867057774,,,
02.124,2.892851503,,,
02.126,2.892851503,,,
02.128,2.892851503,,,
02.130,2.879954639,,,
02.132,2.867057774,,,
02.134,2.841264045,,,
02.136,2.802573451,,,
02.138,2.750985993,,,
02.140,2.750985993,,,
02.142,2.725192264,,,
02.144,2.738089128,,,
02.146,2.763882858,,,
02.148,2.776779722,,,
02.150,2.789676587,,,
02.152,2.815470316,,,
02.154,2.776779722,,,
02.156,2.776779722,,,
02.158,2.763882858,,,
02.160,2.738089128,,,
02.162,2.699398535,,,
02.164,2.699398535,,,
02.166,2.699398535,,,
02.168,2.725192264,,,
02.170,2.750985993,,,
02.172,2.763882858,,,
02.174,2.725192264,,,
02.176,2.699398535,,,
02.178,2.660707941,,,
02.180,2.647811076,,,
02.182,2.647811076,,,
02.184,2.68650167,,,
02.186,2.738089128,,,
02.188,2.750985993,,,
02.190,2.763882858,,,
02.192,2.776779722,,,
02.194,2.699398535,,,
02.196,2.660707941,,,
02.198,2.634914212,,,
02.200,2.609120483,,,
02.202,2.673604806,,,
02.204,2.712295399,,,
02.206,2.712295399,,,
02.208,2.725192264,,,
02.210,2.750985993,,,
02.212,2.725192264,,,
02.214,2.699398535,,,
02.216,2.673604806,,,
02.218,2.647811076,,,
02.220,2.634914212,,,
02.222,2.660707941,,,
02.224,2.647811076,,,
02.226,2.660707941,,,
02.228,2.68650167,,,
02.230,2.660707941,,,
02.232,2.68650167,,,
02.234,2.596223618,,,
02.236,2.570429889,,,
02.238,2.505945566,,,
02.240,2.505945566,,,
02.242,2.557533025,,,
02.244,2.634914212,,,
02.246,2.750985993,,,
02.248,2.905748368,,,
02.250,3.060510742,,,
02.252,3.176582524,,,
02.254,3.292654305,,,
02.256,3.447416679,,,
02.258,3.602179054,,,
02.260,3.885910074,,,
02.262,4.208331688,,,
02.264,4.569443896,,,
02.266,4.75,,,
02.268,4.672618813,,,
02.270,4.621031354,,,
02.272,4.453372115,,,
02.274,4.247022282,,,
02.276,3.989084991,,,
02.278,3.756941429,,,
02.280,3.473210408,,,
02.282,3.13789193,,,
02.284,2.854160909,,,
02.286,2.583326754,,,
02.288,2.480151837,,,
02.290,2.54463616,,,
02.292,2.557533025,,,
02.294,2.557533025,,,
02.296,2.596223618,,,
02.298,2.609120483,,,
02.300,2.647811076,,,
02.302,2.699398535,,,
02.304,2.763882858,,,
02.306,2.789676587,,,
02.308,2.776779722,,,
02.310,2.789676587,,,
02.312,2.763882858,,,
02.314,2.725192264,,,
02.316,2.68650167,,,
02.318,2.673604806,,,
02.320,2.68650167,,,
02.322,2.725192264,,,
02.324,2.738089128,,,
02.326,2.738089128,,,
02.328,2.763882858,,,
02.330,2.789676587,,,
02.332,2.776779722,,,
02.334,2.738089128,,,
02.336,2.68650167,,,
02.338,2.647811076,,,
02.340,2.660707941,,,
02.342,2.699398535,,,
02.344,2.750985993,,,
02.346,2.750985993,,,
02.348,2.750985993,,,
02.350,2.815470316,,,
02.352,2.738089128,,,
02.354,2.712295399,,,
02.356,2.699398535,,,
02.358,2.673604806,,,
02.360,2.712295399,,,
02.362,2.763882858,,,
02.364,2.789676587,,,
02.366,2.802573451,,,
02.368,2.815470316,,,
02.370,2.82836718,,,
02.372,2.789676587,,,
02.374,2.750985993,,,
02.376,2.738089128,,,
02.378,2.725192264,,,
02.380,2.738089128,,,
02.382,2.789676587,,,
02.384,2.815470316,,,
02.386,2.841264045,,,
02.388,2.854160909,,,
02.390,2.879954639,,,
02.392,2.802573451,,,
02.394,2.750985993,,,
02.396,2.738089128,,,
02.398,2.750985993,,,
02.400,2.738089128,,,
02.402,2.789676587,,,
02.404,2.802573451,,,
02.406,2.815470316,,,
02.408,2.854160909,,,
02.410,2.879954639,,,
02.412,2.867057774,,,
02.414,2.841264045,,,
02.416,2.82836718,,,
02.418,2.82836718,,,
02.420,2.802573451,,,
02.422,2.815470316,,,
02.424,2.879954639,,,
02.426,2.892851503,,,
02.428,2.905748368,,,
02.430,2.892851503,,,
02.432,2.892851503,,,
02.434,2.879954639,,,
02.436,2.905748368,,,
02.438,2.867057774,,,
02.440,2.879954639,,,
02.442,2.918645232,,,
02.444,2.99602642,,,
02.446,3.008923284,,,
02.448,3.034717013,,,
02.450,3.034717013,,,
02.452,3.008923284,,,
02.454,2.99602642,,,
02.456,3.021820149,,,
02.458,2.970232691,,,
02.460,3.034717013,,,
02.462,3.099201336,,,
02.464,3.112098201,,,
02.466,3.124995065,,,
02.468,3.150788794,,,
02.470,3.150788794,,,
02.472,3.150788794,,,
02.474,3.13789193,,,
02.476,3.13789193,,,
02.478,3.099201336,,,
02.480,3.13789193,,,
02.482,3.13789193,,,
02.484,3.176582524,,,
02.486,3.215273117,,,
02.488,3.215273117,,,
02.490,3.202376253,,,
02.492,3.202376253,,,
02.494,3.189479388,,,
02.496,3.176582524,,,
02.498,3.124995065,,,
02.500,3.124995065,,,
02.502,3.112098201,,,
02.504,3.124995065,,,
02.506,3.124995065,,,
02.508,3.150788794,,,
02.510,3.124995065,,,
02.512,3.060510742,,,
02.514,3.021820149,,,
02.516,2.944438961,,,
02.518,2.892851503,,,
02.520,2.892851503,,,
02.522,2.841264045,,,
02.524,2.854160909,,,
02.526,2.867057774,,,
02.528,2.841264045,,,
02.530,2.789676587,,,
02.532,2.763882858,,,
02.534,2.699398535,,,
02.536,2.699398535,,,
02.538,2.647811076,,,
02.540,2.660707941,,,
02.542,2.647811076,,,
02.544,2.647811076,,,
02.546,2.622017347,,,
02.548,2.622017347,,,
02.550,2.54463616,,,
02.552,2.531739295,,,
02.554,2.505945566,,,
02.556,2.493048702,,,
02.558,2.441461244,,,
02.560,2.454358108,,,
02.562,2.480151837,,,
02.564,2.480151837,,,
02.566,2.480151837,,,
02.568,2.531739295,,,
02.570,2.493048702,,,
02.572,2.467254973,,,
02.574,2.428564379,,,
02.576,2.40277065,,,
02.578,2.376976921,,,
02.580,2.40277065,,,
02.582,2.415667514,,,
02.584,2.428564379,,,
02.586,2.441461244,,,
02.588,2.480151837,,,
02.590,2.428564379,,,
02.592,2.441461244,,,
02.594,2.389873785,,,
02.596,2.312492598,,,
02.598,2.351183192,,,
02.600,2.364080056,,,
02.602,2.428564379,,,
02.604,2.454358108,,,
02.606,2.467254973,,,
02.608,2.467254973,,,
02.610,2.441461244,,,
02.612,2.376976921,,,
02.614,2.364080056,,,
02.616,2.351183192,,,
02.618,2.376976921,,,
02.620,2.364080056,,,
02.622,2.376976921,,,
02.624,2.40277065,,,
02.626,2.415667514,,,
02.628,2.428564379,,,
02.630,2.389873785,,,
02.632,2.364080056,,,
02.634,2.312492598,,,
02.636,2.312492598,,,
02.638,2.325389462,,,
02.640,2.351183192,,,
02.642,2.389873785,,,
02.644,2.415667514,,,
02.646,2.40277065,,,
02.648,2.428564379,,,
02.650,2.389873785,,,
02.652,2.376976921,,,
02.654,2.364080056,,,
02.656,2.325389462,,,
02.658,2.312492598,,,
02.660,2.351183192,,,
02.662,2.351183192,,,
02.664,2.40277065,,,
02.666,2.415667514,,,
02.668,2.40277065,,,
02.670,2.376976921,,,
02.672,2.338286327,,,
02.674,2.325389462,,,
02.676,2.312492598,,,
02.678,2.312492598,,,
02.680,2.325389462,,,
02.682,2.40277065,,,
02.684,2.389873785,,,
02.686,2.389873785,,,
02.688,2.415667514,,,
02.690,2.364080056,,,
02.692,2.351183192,,,
02.694,2.351183192,,,
02.696,2.351183192,,,
02.698,2.351183192,,,
02.700,2.389873785,,,
02.702,2.364080056,,,
02.704,2.376976921,,,
02.706,2.389873785,,,
02.708,2.376976921,,,
02.710,2.338286327,,,
02.712,2.299595733,,,
02.714,2.299595733,,,
02.716,2.286698869,,,
02.718,2.299595733,,,
02.720,2.351183192,,,
02.722,2.376976921,,,
02.724,2.364080056,,,
02.726,2.376976921,,,
02.728,2.389873785,,,
02.730,2.338286327,,,
02.732,2.338286327,,,
02.734,2.286698869,,,
02.736,2.273802004,,,
02.738,2.286698869,,,
02.740,2.312492598,,,
02.742,2.325389462,,,
02.744,2.364080056,,,
02.746,2.376976921,,,
02.748,2.376976921,,,
02.750,2.338286327,,,
02.752,2.299595733,,,
02.754,2.286698869,,,
02.756,2.26090514,,,
02.758,2.273802004,,,
02.760,2.325389462,,,
02.762,2.325389462,,,
02.764,2.351183192,,,
02.766,2.376976921,,,
02.768,2.351183192,,,
02.770,2.338286327,,,
02.772,2.299595733,,,
02.774,2.299595733,,,
02.776,2.286698869,,,
02.778,2.26090514,,,
02.780,2.273802004,,,
02.782,2.299595733,,,
02.784,2.312492598,,,
02.786,2.338286327,,,
02.788,2.325389462,,,
02.790,2.312492598,,,
02.792,2.286698869,,,
02.794,2.286698869,,,
02.796,2.248008275,,,
02.798,2.286698869,,,
02.800,2.312492598,,,
02.802,2.351183192,,,
02.804,2.351183192,,,
02.806,2.376976921,,,
02.808,2.364080056,,,
02.810,2.325389462,,,
02.812,2.26090514,,,
02.814,2.26090514,,,
02.816,2.209317681,,,
02.818,2.222214546,,,
02.820,2.286698869,,,
02.822,2.312492598,,,
02.824,2.338286327,,,
02.826,2.338286327,,,
02.828,2.312492598,,,
02.830,2.273802004,,,
02.832,2.248008275,,,
02.834,2.26090514,,,
02.836,2.26090514,,,
02.838,2.286698869,,,
02.840,2.299595733,,,
02.842,2.312492598,,,
02.844,2.338286327,,,
02.846,2.351183192,,,
02.848,2.351183192,,,
02.850,2.312492598,,,
02.852,2.26090514,,,
02.854,2.26090514,,,
02.856,2.248008275,,,
02.858,2.286698869,,,
02.860,2.299595733,,,
02.862,2.312492598,,,
02.864,2.299595733,,,
02.866,2.338286327,,,
02.868,2.286698869,,,
02.870,2.26090514,,,
02.872,2.235111411,,,
02.874,2.222214546,,,
02.876,2.222214546,,,
02.878,2.26090514,,,
02.880,2.312492598,,,
02.882,2.376976921,,,
02.884,2.389873785,,,
02.886,2.338286327,,,
02.888,2.286698869,,,
02.890,2.26090514,,,
02.892,2.235111411,,,
02.894,2.222214546,,,
02.896,2.196420817,,,
02.898,2.235111411,,,
02.900,2.273802004,,,
02.902,2.299595733,,,
02.904,2.338286327,,,
02.906,2.351183192,,,
02.908,2.299595733,,,
02.910,2.273802004,,,
02.912,2.26090514,,,
02.914,2.235111411,,,
02.916,2.235111411,,,
02.918,2.273802004,,,
02.920,2.299595733,,,
02.922,2.299595733,,,
02.924,2.312492598,,,
02.926,2.325389462,,,
02.928,2.286698869,,,
02.930,2.26090514,,,
02.932,2.26090514,,,
02.934,2.248008275,,,
02.936,2.273802004,,,
02.938,2.299595733,,,
02.940,2.312492598,,,
02.942,2.312492598,,,
02.944,2.338286327,,,
02.946,2.351183192,,,
02.948,2.286698869,,,
02.950,2.248008275,,,
02.952,2.222214546,,,
02.954,2.273802004,,,
02.956,2.248008275,,,
02.958,2.273802004,,,
02.960,2.325389462,,,
02.962,2.338286327,,,
02.964,2.325389462,,,
02.966,2.338286327,,,
02.968,2.312492598,,,
02.970,2.273802004,,,
02.972,2.26090514,,,
02.974,2.273802004,,,
02.976,2.286698869,,,
02.978,2.299595733,,,
02.980,2.312492598,,,
02.982,2.312492598,,,
02.984,2.351183192,,,
02.986,2.338286327,,,
02.988,2.299595733,,,
02.990,2.312492598,,,
02.992,2.325389462,,,
02.994,2.286698869,,,
02.996,2.312492598,,,
02.998,2.351183192,,,
03.000,2.364080056,,,
03.002,2.415667514,,,
03.004,2.40277065,,,
03.006,2.376976921,,,
03.008,2.364080056,,,
03.010,2.325389462,,,
03.012,2.325389462,,,
03.014,2.325389462,,,
03.016,2.325389462,,,
03.018,2.351183192,,,
03.020,2.40277065,,,
03.022,2.467254973,,,
03.024,2.480151837,,,
03.026,2.493048702,,,
03.028,2.454358108,,,
03.030,2.454358108,,,
03.032,2.415667514,,,
03.034,2.40277065,,,
03.036,2.40277065,,,
03.038,2.40277065,,,
03.040,2.441461244,,,
03.042,2.480151837,,,
03.044,2.570429889,,,
03.046,2.518842431,,,
03.048,2.467254973,,,
03.050,2.454358108,,,
03.052,2.389873785,,,
03.054,2.338286327,,,
03.056,2.351183192,,,
03.058,2.389873785,,,
03.060,2.389873785,,,
03.062,2.376976921,,,
03.064,2.376976921,,,
03.066,2.325389462,,,
03.068,2.299595733,,,
03.070,2.26090514,,,
03.072,2.235111411,,,
03.074,2.222214546,,,
03.076,2.222214546,,,
03.078,2.273802004,,,
03.080,2.273802004,,,
03.082,2.312492598,,,
03.084,2.338286327,,,
03.086,2.312492598,,,
03.088,2.273802004,,,
03.090,2.248008275,,,
03.092,2.248008275,,,
03.094,2.222214546,,,
03.096,2.222214546,,,
03.098,2.248008275,,,
03.100,2.299595733,,,
03.102,2.299595733,,,
03.104,2.299595733,,,
03.106,2.248008275,,,
03.108,2.248008275,,,
03.110,2.235111411,,,
03.112,2.183523952,,,
03.114,2.170627088,,,
03.116,2.196420817,,,
03.118,2.248008275,,,
03.120,2.26090514,,,
03.122,2.286698869,,,
03.124,2.312492598,,,
03.126,2.273802004,,,
03.128,2.235111411,,,
03.130,2.196420817,,,
03.132,2.170627088,,,
03.134,2.183523952,,,
03.136,2.222214546,,,
03.138,2.235111411,,,
03.140,2.248008275,,,
03.142,2.26090514,,,
03.144,2.325389462,,,
03.146,2.248008275,,,
03.148,2.235111411,,,
03.150,2.222214546,,,
03.152,2.170627088,,,
03.154,2.144833359,,,
03.156,2.183523952,,,
03.158,2.209317681,,,
03.160,2.196420817,,,
03.162,2.196420817,,,
03.164,2.183523952,,,
03.166,2.131936494,,,
03.168,2.119039629,,,
03.170,2.131936494,,,
03.172,2.131936494,,,
03.174,2.222214546,,,
03.176,2.40277065,,,
03.178,2.570429889,,,
03.180,2.699398535,,,
03.182,2.854160909,,,
03.184,3.060510742,,,
03.186,3.163685659,,,
03.188,3.382932356,,,
03.190,3.640869648,,,
03.192,3.976188126,,,
03.194,4.182537959,,,
03.196,4.195434824,,,
03.198,4.195434824,,,
03.200,4.053569314,,,
03.202,3.937497533,,,
03.204,3.653766512,,,
03.206,3.434519815,,,
03.208,3.150788794,,,
03.210,2.802573451,,,
03.212,2.428564379,,,
03.214,2.119039629,,,
03.216,1.990070984,,,
03.218,1.977174119,,,
03.220,2.067452171,,,
03.222,2.106142765,,,
03.224,2.170627088,,,
03.226,2.235111411,,,
03.228,2.273802004,,,
03.230,2.273802004,,,
03.232,2.26090514,,,
03.234,2.299595733,,,
03.236,2.325389462,,,
03.238,2.325389462,,,
03.240,2.364080056,,,
03.242,2.376976921,,,
03.244,2.364080056,,,
03.246,2.325389462,,,
03.248,2.299595733,,,
03.250,2.299595733,,,
03.252,2.299595733,,,
03.254,2.286698869,,,
03.256,2.325389462,,,
03.258,2.351183192,,,
03.260,2.376976921,,,
03.262,2.351183192,,,
03.264,2.376976921,,,
03.266,2.338286327,,,
03.268,2.286698869,,,
03.270,2.299595733,,,
03.272,2.286698869,,,
03.274,2.351183192,,,
03.276,2.351183192,,,
03.278,2.40277065,,,
03.280,2.428564379,,,
03.282,2.415667514,,,
03.284,2.415667514,,,
03.286,2.376976921,,,
03.288,2.338286327,,,
03.290,2.351183192,,,
03.292,2.312492598,,,
03.294,2.338286327,,,
03.296,2.376976921,,,
03.298,2.428564379,,,
03.300,2.467254973,,,
03.302,2.480151837,,,
03.304,2.454358108,,,
03.306,2.389873785,,,
03.308,2.376976921,,,
03.310,2.364080056,,,
03.312,2.286698869,,,
03.314,2.351183192,,,
03.316,2.415667514,,,
03.318,2.415667514,,,
03.320,2.441461244,,,
03.322,2.493048702,,,
03.324,2.480151837,,,
03.326,2.467254973,,,
03.328,2.441461244,,,
03.330,2.428564379,,,
03.332,2.415667514,,,
03.334,2.454358108,,,
03.336,2.441461244,,,
03.338,2.454358108,,,
03.340,2.480151837,,,
03.342,2.518842431,,,
03.344,2.531739295,,,
03.346,2.493048702,,,
03.348,2.493048702,,,
03.350,2.454358108,,,
03.352,2.480151837,,,
03.354,2.480151837,,,
03.356,2.531739295,,,
03.358,2.570429889,,,
03.360,2.596223618,,,
03.362,2.622017347,,,
03.364,2.634914212,,,
03.366,2.622017347,,,
03.368,2.609120483,,,
03.370,2.583326754,,,
03.372,2.622017347,,,
03.374,2.634914212,,,
03.376,2.712295399,,,
03.378,2.738089128,,,
03.380,2.750985993,,,
03.382,2.789676587,,,
03.384,2.789676587,,,
03.386,2.763882858,,,
03.388,2.750985993,,,
03.390,2.750985993,,,
03.392,2.776779722,,,
03.394,2.815470316,,,
03.396,2.854160909,,,
03.398,2.892851503,,,
03.400,2.879954639,,,
03.402,2.905748368,,,
03.404,2.879954639,,,
03.406,2.892851503,,,
03.408,2.931542097,,,
03.410,2.918645232,,,
03.412,2.905748368,,,
03.414,2.957335826,,,
03.416,2.970232691,,,
03.418,2.99602642,,,
03.420,2.957335826,,,
03.422,3.008923284,,,
03.424,2.957335826,,,
03.426,2.957335826,,,
03.428,2.944438961,,,
03.430,2.892851503,,,
03.432,2.879954639,,,
03.434,2.892851503,,,
03.436,2.931542097,,,
03.438,2.892851503,,,
03.440,2.905748368,,,
03.442,2.892851503,,,
03.444,2.905748368,,,
03.446,2.789676587,,,
03.448,2.776779722,,,
03.450,2.763882858,,,
03.452,2.725192264,,,
03.454,2.725192264,,,
03.456,2.738089128,,,
03.458,2.725192264,,,
03.460,2.712295399,,,
03.462,2.68650167,,,
03.464,2.647811076,,,
03.466,2.622017347,,,
03.468,2.570429889,,,
03.470,2.518842431,,,
03.472,2.467254973,,,
03.474,2.467254973,,,
03.476,2.441461244,,,
03.478,2.467254973,,,
03.480,2.467254973,,,
03.482,2.454358108,,,
03.484,2.415667514,,,
03.486,2.389873785,,,
03.488,2.376976921,,,
03.490,2.338286327,,,
03.492,2.325389462,,,
03.494,2.325389462,,,
03.496,2.364080056,,,
03.498,2.364080056,,,
03.500,2.40277065,,,
03.502,2.40277065,,,
03.504,2.364080056,,,
03.506,2.351183192,,,
03.508,2.312492598,,,
03.510,2.312492598,,,
03.512,2.338286327,,,
03.514,2.351183192,,,
03.516,2.338286327,,,
03.518,2.325389462,,,
03.520,2.312492598,,,
03.522,2.312492598,,,
03.524,2.26090514,,,
03.526,2.26090514,,,
03.528,2.273802004,,,
03.530,2.26090514,,,
03.532,2.26090514,,,
03.534,2.299595733,,,
03.536,2.312492598,,,
03.538,2.312492598,,,
03.540,2.325389462,,,
03.542,2.338286327,,,
03.544,2.325389462,,,
03.546,2.299595733,,,
03.548,2.286698869,,,
03.550,2.248008275,,,
03.552,2.273802004,,,
03.554,2.299595733,,,
03.556,2.312492598,,,
03.558,2.364080056,,,
03.560,2.40277065,,,
03.562,2.389873785,,,
03.564,2.338286327,,,
03.566,2.273802004,,,
03.568,2.273802004,,,
03.570,2.26090514,,,
03.572,2.312492598,,,
03.574,2.338286327,,,
03.576,2.40277065,,,
03.578,2.364080056,,,
03.580,2.389873785,,,
03.582,2.389873785,,,
03.584,2.351183192,,,
03.586,2.312492598,,,
03.588,2.286698869,,,
03.590,2.273802004,,,
03.592,2.286698869,,,
03.594,2.338286327,,,
03.596,2.351183192,,,
03.598,2.351183192,,,
03.600,2.389873785,,,
03.602,2.428564379,,,
03.604,2.364080056,,,
03.606,2.338286327,,,
03.608,2.325389462,,,
03.610,2.286698869,,,
03.612,2.286698869,,,
03.614,2.325389462,,,
03.616,2.364080056,,,
03.618,2.364080056,,,
03.620,2.40277065,,,
03.622,2.415667514,,,
03.624,2.376976921,,,
03.626,2.364080056,,,
03.628,2.338286327,,,
03.630,2.325389462,,,
03.632,2.325389462,,,
03.634,2.376976921,,,
03.636,2.376976921,,,
03.638,2.376976921,,,
03.640,2.389873785,,,
03.642,2.428564379,,,
03.644,2.351183192,,,
03.646,2.364080056,,,
03.648,2.351183192,,,
03.650,2.325389462,,,
03.652,2.364080056,,,
03.654,2.364080056,,,
03.656,2.415667514,,,
03.658,2.389873785,,,
03.660,2.415667514,,,
03.662,2.415667514,,,
03.664,2.389873785,,,
03.666,2.351183192,,,
03.668,2.351183192,,,
03.670,2.325389462,,,
03.672,2.312492598,,,
03.674,2.351183192,,,
03.676,2.376976921,,,
03.678,2.389873785,,,
03.680,2.389873785,,,
03.682,2.376976921,,,
03.684,2.364080056,,,
03.686,2.299595733,,,
03.688,2.299595733,,,
03.690,2.273802004,,,
03.692,2.299595733,,,
03.694,2.364080056,,,
03.696,2.376976921,,,
03.698,2.428564379,,,
03.700,2.389873785,,,
03.702,2.389873785,,,
03.704,2.351183192,,,
03.706,2.312492598,,,
03.708,2.273802004,,,
03.710,2.26090514,,,
03.712,2.351183192,,,
03.714,2.338286327,,,
03.716,2.351183192,,,
03.718,2.338286327,,,
03.720,2.376976921,,,
03.722,2.364080056,,,
03.724,2.325389462,,,
03.726,2.312492598,,,
03.728,2.286698869,,,
03.730,2.273802004,,,
03.732,2.286698869,,,
03.734,2.299595733,,,
03.736,2.325389462,,,
03.738,2.351183192,,,
03.740,2.376976921,,,
03.742,2.338286327,,,
03.744,2.312492598,,,
03.746,2.325389462,,,
03.748,2.299595733,,,
03.750,2.273802004,,,
03.752,2.338286327,,,
03.754,2.351183192,,,
03.756,2.376976921,,,
03.758,2.389873785,,,
03.760,2.351183192,,,
03.762,2.351183192,,,
03.764,2.312492598,,,
03.766,2.312492598,,,
03.768,2.286698869,,,
03.770,2.286698869,,,
03.772,2.286698869,,,
03.774,2.299595733,,,
03.776,2.389873785,,,
03.778,2.376976921,,,
03.780,2.415667514,,,
03.782,2.351183192,,,
03.784,2.299595733,,,
03.786,2.286698869,,,
03.788,2.273802004,,,
03.790,2.26090514,,,
03.792,2.299595733,,,
03.794,2.325389462,,,
03.796,2.389873785,,,
03.798,2.389873785,,,
03.800,2.389873785,,,
03.802,2.376976921,,,
03.804,2.338286327,,,
03.806,2.312492598,,,
03.808,2.299595733,,,
03.810,2.248008275,,,
03.812,2.26090514,,,
03.814,2.273802004,,,
03.816,2.299595733,,,
03.818,2.364080056,,,
03.820,2.364080056,,,
03.822,2.312492598,,,
03.824,2.312492598,,,
03.826,2.286698869,,,
03.828,2.26090514,,,
03.830,2.26090514,,,
03.832,2.286698869,,,
03.834,2.338286327,,,
03.836,2.364080056,,,
03.838,2.389873785,,,
03.840,2.364080056,,,
03.842,2.364080056,,,
03.844,2.351183192,,,
03.846,2.338286327,,,
03.848,2.299595733,,,
03.850,2.299595733,,,
03.852,2.351183192,,,
03.854,2.364080056,,,
03.856,2.376976921,,,
03.858,2.40277065,,,
03.860,2.415667514,,,
03.862,2.376976921,,,
03.864,2.364080056,,,
03.866,2.351183192,,,
03.868,2.325389462,,,
03.870,2.338286327,,,
03.872,2.325389462,,,
03.874,2.389873785,,,
03.876,2.467254973,,,
03.878,2.480151837,,,
03.880,2.505945566,,,
03.882,2.531739295,,,
03.884,2.54463616,,,
03.886,2.531739295,,,
03.888,2.54463616,,,
03.890,2.518842431,,,
03.892,2.557533025,,,
03.894,2.570429889,,,
03.896,2.596223618,,,
03.898,2.622017347,,,
03.900,2.647811076,,,
03.902,2.622017347,,,
03.904,2.596223618,,,
03.906,2.570429889,,,
03.908,2.557533025,,,
03.910,2.596223618,,,
03.912,2.622017347,,,
03.914,2.68650167,,,
03.916,2.725192264,,,
03.918,2.776779722,,,
03.920,2.789676587,,,
03.922,2.699398535,,,
03.924,2.68650167,,,
03.926,2.712295399,,,
03.928,2.68650167,,,
03.930,2.699398535,,,
03.932,2.712295399,,,
03.934,2.738089128,,,
03.936,2.776779722,,,
03.938,2.802573451,,,
03.940,2.82836718,,,
03.942,2.82836718,,,
03.944,2.789676587,,,
03.946,2.802573451,,,
03.948,2.763882858,,,
03.950,2.776779722,,,
03.952,2.776779722,,,
03.954,2.802573451,,,
03.956,2.82836718,,,
03.958,2.854160909,,,
03.960,2.892851503,,,
03.962,2.867057774,,,
03.964,2.879954639,,,
03.966,2.879954639,,,
03.968,2.854160909,,,
03.970,2.854160909,,,
03.972,2.867057774,,,
03.974,2.854160909,,,
03.976,2.879954639,,,
03.978,2.918645232,,,
03.980,2.879954639,,,
03.982,2.867057774,,,
03.984,2.867057774,,,
03.986,2.867057774,,,
03.988,2.815470316,,,
03.990,2.789676587,,,
03.992,2.815470316,,,
03.994,2.815470316,,,
03.996,2.802573451,,,
03.998,2.802573451,,,
04.000,2.789676587,,,
04.002,2.738089128,,,
04.004,2.738089128,,,
04.006,2.699398535,,,
04.008,2.68650167,,,
04.010,2.699398535,,,
04.012,2.725192264,,,
04.014,2.763882858,,,
04.016,2.776779722,,,
04.018,2.763882858,,,
04.020,2.738089128,,,
04.022,2.725192264,,,
04.024,2.68650167,,,
04.026,2.673604806,,,
04.028,2.634914212,,,
04.030,2.673604806,,,
04.032,2.725192264,,,
04.034,2.712295399,,,
04.036,2.725192264,,,
04.038,2.712295399,,,
04.040,2.699398535,,,
04.042,2.660707941,,,
04.044,2.634914212,,,
04.046,2.647811076,,,
04.048,2.596223618,,,
04.050,2.634914212,,,
04.052,2.634914212,,,
04.054,2.660707941,,,
04.056,2.673604806,,,
04.058,2.712295399,,,
04.060,2.673604806,,,
04.062,2.622017347,,,
04.064,2.609120483,,,
04.066,2.583326754,,,
04.068,2.583326754,,,
04.070,2.596223618,,,
04.072,2.634914212,,,
04.074,2.660707941,,,
04.076,2.673604806,,,
04.078,2.673604806,,,
04.080,2.634914212,,,
04.082,2.622017347,,,
04.084,2.622017347,,,
04.086,2.570429889,,,
04.088,2.622017347,,,
04.090,2.622017347,,,
04.092,2.622017347,,,
04.094,2.634914212,,,
04.096,2.609120483,,,
04.098,2.634914212,,,
04.100,2.609120483,,,
04.102,2.54463616,,,
04.104,2.531739295,,,
04.106,2.557533025,,,
04.108,2.596223618,,,
04.110,2.673604806,,,
04.112,2.789676587,,,
04.114,2.931542097,,,
04.116,3.060510742,,,
04.118,3.202376253,,,
04.120,3.305551169,,,
04.122,3.473210408,,,
04.124,3.744044564,,,
04.126,4.01487872,,,
04.128,4.272816011,,,
04.130,4.401784657,,,
04.132,4.401784657,,,
04.134,4.363094063,,,
04.136,4.247022282,,,
04.138,4.040672449,,,
04.140,3.782735158,,,
04.142,3.56348846,,,
04.144,3.292654305,,,
04.146,2.944438961,,,
04.148,2.634914212,,,
04.150,2.415667514,,,
04.152,2.338286327,,,
04.154,2.351183192,,,
04.156,2.40277065,,,
04.158,2.493048702,,,
04.160,2.518842431,,,
04.162,2.518842431,,,
04.164,2.557533025,,,
04.166,2.609120483,,,
04.168,2.673604806,,,
04.170,2.68650167,,,
04.172,2.712295399,,,
04.174,2.763882858,,,
04.176,2.738089128,,,
04.178,2.68650167,,,
04.180,2.647811076,,,
04.182,2.634914212,,,
04.184,2.622017347,,,
04.186,2.634914212,,,
04.188,2.634914212,,,
04.190,2.673604806,,,
04.192,2.68650167,,,
04.194,2.725192264,,,
04.196,2.725192264,,,
04.198,2.738089128,,,
04.200,2.699398535,,,
04.202,2.699398535,,,
04.204,2.673604806,,,
04.206,2.673604806,,,
04.208,2.673604806,,,
04.210,2.712295399,,,
04.212,2.738089128,,,
04.214,2.763882858,,,
04.216,2.789676587,,,
04.218,2.738089128,,,
04.220,2.68650167,,,
04.222,2.647811076,,,
04.224,2.634914212,,,
04.226,2.634914212,,,
04.228,2.647811076,,,
04.230,2.699398535,,,
04.232,2.750985993,,,
04.234,2.776779722,,,
04.236,2.789676587,,,
04.238,2.776779722,,,
04.240,2.750985993,,,
04.242,2.725192264,,,
04.244,2.712295399,,,
04.246,2.725192264,,,
04.248,2.738089128,,,
04.250,2.763882858,,,
04.252,2.776779722,,,
04.254,2.776779722,,,
04.256,2.789676587,,,
04.258,2.789676587,,,
04.260,2.725192264,,,
04.262,2.725192264,,,
04.264,2.763882858,,,
04.266,2.725192264,,,
04.268,2.738089128,,,
04.270,2.763882858,,,
04.272,2.789676587,,,
04.274,2.82836718,,,
04.276,2.879954639,,,
04.278,2.841264045,,,
04.280,2.815470316,,,
04.282,2.789676587,,,
04.284,2.776779722,,,
04.286,2.789676587,,,
04.288,2.789676587,,,
04.290,2.815470316,,,
04.292,2.815470316,,,
04.294,2.82836718,,,
04.296,2.879954639,,,
04.298,2.892851503,,,
04.300,2.867057774,,,
04.302,2.867057774,,,
04.304,2.879954639,,,
04.306,2.867057774,,,
04.308,2.931542097,,,
04.310,2.918645232,,,
04.312,2.957335826,,,
04.314,2.970232691,,,
04.316,2.99602642,,,
04.318,2.983129555,,,
04.320,2.970232691,,,
04.322,2.970232691,,,
04.324,2.970232691,,,
04.326,2.970232691,,,
04.328,3.008923284,,,
04.330,3.034717013,,,
04.332,3.099201336,,,
04.334,3.124995065,,,
04.336,3.150788794,,,
04.338,3.112098201,,,
04.340,3.112098201,,,
04.342,3.124995065,,,
04.344,3.124995065,,,
04.346,3.086304472,,,
04.348,3.124995065,,,
04.350,3.150788794,,,
04.352,3.13789193,,,
04.354,3.150788794,,,
04.356,3.112098201,,,
04.358,3.13789193,,,
04.360,3.124995065,,,
04.362,3.086304472,,,
04.364,3.073407607,,,
04.366,3.060510742,,,
04.368,3.073407607,,,
04.370,3.112098201,,,
04.372,3.060510742,,,
04.374,3.073407607,,,
04.376,3.073407607,,,
04.378,3.021820149,,,
04.380,2.970232691,,,
04.382,2.918645232,,,
04.384,2.879954639,,,
04.386,2.841264045,,,
04.388,2.854160909,,,
04.390,2.854160909,,,
04.392,2.841264045,,,
04.394,2.802573451,,,
04.396,2.763882858,,,
04.398,2.68650167,,,
04.400,2.673604806,,,
04.402,2.634914212,,,
04.404,2.583326754,,,
04.406,2.557533025,,,
04.408,2.570429889,,,
04.410,2.570429889,,,
04.412,2.557533025,,,
04.414,2.583326754,,,
04.416,2.570429889,,,
04.418,2.531739295,,,
04.420,2.480151837,,,
04.422,2.441461244,,,
04.424,2.415667514,,,
04.426,2.389873785,,,
04.428,2.415667514,,,
04.430,2.428564379,,,
04.432,2.454358108,,,
04.434,2.467254973,,,
04.436,2.467254973,,,
04.438,2.40277065,,,
04.440,2.376976921,,,
04.442,2.338286327,,,
04.444,2.299595733,,,
04.446,2.351183192,,,
04.448,2.351183192,,,
04.450,2.40277065,,,
04.452,2.415667514,,,
04.454,2.415667514,,,
04.456,2.428564379,,,
04.458,2.40277065,,,
04.460,2.325389462,,,
04.462,2.312492598,,,
04.464,2.26090514,,,
04.466,2.299595733,,,
04.468,2.312492598,,,
04.470,2.364080056,,,
04.472,2.376976921,,,
04.474,2.376976921,,,
04.476,2.389873785,,,
04.478,2.351183192,,,
04.480,2.299595733,,,
04.482,2.312492598,,,
04.484,2.312492598,,,
04.486,2.286698869,,,
04.488,2.299595733,,,
04.490,2.325389462,,,
04.492,2.376976921,,,
04.494,2.40277065,,,
04.496,2.40277065,,,
04.498,2.376976921,,,
04.500,2.351183192,,,
04.502,2.325389462,,,
04.504,2.286698869,,,
04.506,2.273802004,,,
04.508,2.312492598,,,
04.510,2.364080056,,,
04.512,2.389873785,,,
04.514,2.40277065,,,
04.516,2.415667514,,,
04.518,2.376976921,,,
04.520,2.338286327,,,
04.522,2.338286327,,,
04.524,2.325389462,,,
04.526,2.351183192,,,
04.528,2.389873785,,,
04.530,2.415667514,,,
04.532,2.415667514,,,
04.534,2.454358108,,,
04.536,2.428564379,,,
04.538,2.364080056,,,
04.540,2.312492598,,,
04.542,2.351183192,,,
04.544,2.286698869,,,
04.546,2.351183192,,,
04.548,2.325389462,,,
04.550,2.364080056,,,
04.552,2.428564379,,,
04.554,2.467254973,,,
04.556,2.40277065,,,
04.558,2.351183192,,,
04.560,2.351183192,,,
04.562,2.351183192,,,
04.564,2.286698869,,,
04.566,2.338286327,,,
04.568,2.364080056,,,
04.570,2.389873785,,,
04.572,2.389873785,,,
04.574,2.428564379,,,
04.576,2.415667514,,,
04.578,2.364080056,,,
04.580,2.364080056,,,
04.582,2.338286327,,,
04.584,2.325389462,,,
04.586,2.325389462,,,
04.588,2.351183192,,,
04.590,2.351183192,,,
04.592,2.338286327,,,
04.594,2.389873785,,,
04.596,2.351183192,,,
04.598,2.338286327,,,
04.600,2.312492598,,,
04.602,2.273802004,,,
04.604,2.273802004,,,
04.606,2.299595733,,,
04.608,2.338286327,,,
04.610,2.364080056,,,
04.612,2.376976921,,,
04.614,2.389873785,,,
04.616,2.389873785,,,
04.618,2.364080056,,,
04.620,2.325389462,,,
04.622,2.26090514,,,
04.624,2.196420817,,,
04.626,2.273802004,,,
04.628,2.325389462,,,
04.630,2.325389462,,,
04.632,2.351183192,,,
04.634,2.364080056,,,
04.636,2.351183192,,,
04.638,2.325389462,,,
04.640,2.299595733,,,
04.642,2.26090514,,,
04.644,2.273802004,,,
04.646,2.325389462,,,
04.648,2.325389462,,,
04.650,2.325389462,,,
04.652,2.351183192,,,
04.654,2.364080056,,,
04.656,2.338286327,,,
04.658,2.299595733,,,
04.660,2.273802004,,,
04.662,2.26090514,,,
04.664,2.248008275,,,
04.666,2.26090514,,,
04.668,2.351183192,,,
04.670,2.338286327,,,
04.672,2.351183192,,,
04.674,2.364080056,,,
04.676,2.312492598,,,
04.678,2.312492598,,,
04.680,2.286698869,,,
04.682,2.26090514,,,
04.684,2.26090514,,,
04.686,2.299595733,,,
04.688,2.286698869,,,
04.690,2.299595733,,,
04.692,2.312492598,,,
04.694,2.338286327,,,
04.696,2.338286327,,,
04.698,2.299595733,,,
04.700,2.248008275,,,
04.702,2.273802004,,,
04.704,2.26090514,,,
04.706,2.299595733,,,
04.708,2.312492598,,,
04.710,2.286698869,,,
04.712,2.338286327,,,
04.714,2.338286327,,,
04.716,2.325389462,,,
04.718,2.286698869,,,
04.720,2.286698869,,,
04.722,2.26090514,,,
04.724,2.248008275,,,
04.726,2.286698869,,,
04.728,2.312492598,,,
04.730,2.325389462,,,
04.732,2.325389462,,,
04.734,2.351183192,,,
04.736,2.299595733,,,
04.738,2.286698869,,,
04.740,2.26090514,,,
04.742,2.235111411,,,
04.744,2.248008275,,,
04.746,2.286698869,,,
04.748,2.299595733,,,
04.750,2.312492598,,,
04.752,2.325389462,,,
04.754,2.364080056,,,
04.756,2.286698869,,,
04.758,2.273802004,,,
04.760,2.312492598,,,
04.762,2.235111411,,,
04.764,2.273802004,,,
04.766,2.286698869,,,
04.768,2.338286327,,,
04.770,2.299595733,,,
04.772,2.325389462,,,
04.774,2.338286327,,,
04.776,2.273802004,,,
04.778,2.248008275,,,
04.780,2.26090514,,,
04.782,2.235111411,,,
04.784,2.222214546,,,
04.786,2.273802004,,,
04.788,2.325389462,,,
04.790,2.312492598,,,
04.792,2.338286327,,,
04.794,2.351183192,,,
04.796,2.325389462,,,
04.798,2.26090514,,,
04.800,2.26090514,,,
04.802,2.222214546,,,
04.804,2.222214546,,,
04.806,2.26090514,,,
04.808,2.273802004,,,
04.810,2.299595733,,,
04.812,2.338286327,,,
04.814,2.325389462,,,
04.816,2.286698869,,,
04.818,2.248008275,,,
04.820,2.26090514,,,
04.822,2.26090514,,,
04.824,2.286698869,,,
04.826,2.286698869,,,
04.828,2.286698869,,,
04.830,2.286698869,,,
04.832,2.325389462,,,
04.834,2.286698869,,,
04.836,2.26090514,,,
04.838,2.26090514,,,
04.840,2.26090514,,,
04.842,2.235111411,,,
04.844,2.26090514,,,
04.846,2.299595733,,,
04.848,2.351183192,,,
04.850,2.351183192,,,
04.852,2.376976921,,,
04.854,2.376976921,,,
04.856,2.338286327,,,
04.858,2.312492598,,,
04.860,2.312492598,,,
04.862,2.325389462,,,
04.864,2.338286327,,,
04.866,2.351183192,,,
04.868,2.364080056,,,
04.870,2.415667514,,,
04.872,2.454358108,,,
04.874,2.441461244,,,
04.876,2.415667514,,,
04.878,2.40277065,,,
04.880,2.40277065,,,
04.882,2.415667514,,,
04.884,2.454358108,,,
04.886,2.428564379,,,
04.888,2.467254973,,,
04.890,2.480151837,,,
04.892,2.480151837,,,
04.894,2.441461244,,,
04.896,2.428564379,,,
04.898,2.415667514,,,
04.900,2.415667514,,,
04.902,2.389873785,,,
04.904,2.40277065,,,
04.906,2.428564379,,,
04.908,2.480151837,,,
04.910,2.454358108,,,
04.912,2.441461244,,,
04.914,2.376976921,,,
04.916,2.338286327,,,
04.918,2.299595733,,,
04.920,2.286698869,,,
04.922,2.248008275,,,
04.924,2.248008275,,,
04.926,2.273802004,,,
04.928,2.286698869,,,
04.930,2.325389462,,,
04.932,2.338286327,,,
04.934,2.299595733,,,
04.936,2.286698869,,,
04.938,2.26090514,,,
04.940,2.222214546,,,
04.942,2.183523952,,,
04.944,2.235111411,,,
04.946,2.286698869,,,
04.948,2.286698869,,,
04.950,2.273802004,,,
04.952,2.312492598,,,
04.954,2.299595733,,,
04.956,2.26090514,,,
04.958,2.209317681,,,
04.960,2.183523952,,,
04.962,2.144833359,,,
04.964,2.170627088,,,
04.966,2.26090514,,,
04.968,2.248008275,,,
04.970,2.273802004,,,
04.972,2.299595733,,,
04.974,2.248008275,,,
04.976,2.209317681,,,
04.978,2.170627088,,,
04.980,2.196420817,,,
04.982,2.222214546,,,
04.984,2.209317681,,,
04.986,2.235111411,,,
04.988,2.26090514,,,
04.990,2.26090514,,,
04.992,2.286698869,,,
04.994,2.248008275,,,
04.996,2.196420817,,,
04.998,2.196420817,,,
05.000,2.196420817,,,
05.002,2.196420817,,,
05.004,2.222214546,,,
05.006,2.222214546,,,
05.008,2.248008275,,,
05.010,2.209317681,,,
05.012,2.222214546,,,
05.014,2.196420817,,,
05.016,2.183523952,,,
05.018,2.131936494,,,
05.020,2.080349036,,,
05.022,2.080349036,,,
05.024,2.157730223,,,
05.026,2.26090514,,,
05.028,2.40277065,,,
05.030,2.54463616,,,
05.032,2.68650167,,,
05.034,2.763882858,,,
05.036,2.918645232,,,
05.038,3.086304472,,,
05.040,3.292654305,,,
05.042,3.550591596,,,
05.044,3.885910074,,,
05.046,4.105156772,,,
05.048,4.130950501,,,
05.050,4.118053636,,,
05.052,3.989084991,,,
05.054,3.795632022,,,
05.056,3.550591596,,,
05.058,3.318448034,,,
05.060,3.086304472,,,
05.062,2.789676587,,,
05.064,2.505945566,,,
05.066,2.222214546,,,
05.068,2.028761578,,,
05.070,2.015864713,,,
05.072,2.080349036,,,
05.074,2.131936494,,,
05.076,2.131936494,,,
05.078,2.157730223,,,
05.080,2.183523952,,,
05.082,2.209317681,,,
05.084,2.273802004,,,
05.086,2.299595733,,,
05.088,2.351183192,,,
05.090,2.351183192,,,
05.092,2.364080056,,,
05.094,2.312492598,,,
05.096,2.273802004,,,
05.098,2.235111411,,,
05.100,2.235111411,,,
05.102,2.248008275,,,
05.104,2.286698869,,,
05.106,2.325389462,,,
05.108,2.364080056,,,
05.110,2.389873785,,,
05.112,2.389873785,,,
05.114,2.376976921,,,
05.116,2.389873785,,,
05.118,2.299595733,,,
05.120,2.26090514,,,
05.122,2.273802004,,,
05.124,2.299595733,,,
05.126,2.325389462,,,
05.128,2.325389462,,,
05.130,2.376976921,,,
05.132,2.376976921,,,
05.134,2.351183192,,,
05.136,2.325389462,,,
05.138,2.325389462,,,
05.140,2.299595733,,,
05.142,2.325389462,,,
05.144,2.338286327,,,
05.146,2.376976921,,,
05.148,2.415667514,,,
05.150,2.428564379,,,
05.152,2.376976921,,,
05.154,2.364080056,,,
05.156,2.364080056,,,
05.158,2.351183192,,,
05.160,2.351183192,,,
05.162,2.376976921,,,
05.164,2.415667514,,,
05.166,2.428564379,,,
05.168,2.441461244,,,
05.170,2.480151837,,,
05.172,2.467254973,,,
05.174,2.40277065,,,
05.176,2.376976921,,,
05.178,2.351183192,,,
05.180,2.338286327,,,
05.182,2.338286327,,,
05.184,2.40277065,,,
05.186,2.428564379,,,
05.188,2.467254973,,,
05.190,2.505945566,,,
05.192,2.493048702,,,
05.194,2.454358108,,,
05.196,2.441461244,,,
05.198,2.415667514,,,
05.200,2.428564379,,,
05.202,2.467254973,,,
05.204,2.493048702,,,
05.206,2.505945566,,,
05.208,2.531739295,,,
05.210,2.583326754,,,
05.212,2.54463616,,,
05.214,2.505945566,,,
05.216,2.518842431,,,
05.218,2.531739295,,,
05.220,2.531739295,,,
05.222,2.583326754,,,
05.224,2.609120483,,,
05.226,2.660707941,,,
05.228,2.673604806,,,
05.230,2.738089128,,,
05.232,2.712295399,,,
05.234,2.660707941,,,
05.236,2.647811076,,,
05.238,2.634914212,,,
05.240,2.660707941,,,
05.242,2.699398535,,,
05.244,2.750985993,,,
05.246,2.776779722,,,
05.248,2.841264045,,,
05.250,2.867057774,,,
05.252,2.867057774,,,
05.254,2.867057774,,,
05.256,2.82836718,,,
05.258,2.82836718,,,
05.260,2.802573451,,,
05.262,2.867057774,,,
05.264,2.905748368,,,
05.266,2.931542097,,,
05.268,2.944438961,,,
05.270,2.957335826,,,
05.272,2.944438961,,,
05.274,2.931542097,,,
05.276,2.905748368,,,
05.278,2.892851503,,,
05.280,2.879954639,,,
05.282,2.918645232,,,
05.284,2.905748368,,,
05.286,2.905748368,,,
05.288,2.892851503,,,
05.290,2.905748368,,,
05.292,2.854160909,,,
05.294,2.82836718,,,
05.296,2.789676587,,,
05.298,2.750985993,,,
05.300,2.725192264,,,
05.302,2.738089128,,,
05.304,2.750985993,,,
05.306,2.738089128,,,
05.308,2.738089128,,,
05.310,2.725192264,,,
05.312,2.660707941,,,
05.314,2.622017347,,,
05.316,2.570429889,,,
05.318,2.493048702,,,
05.320,2.480151837,,,
05.322,2.493048702,,,
05.324,2.493048702,,,
05.326,2.493048702,,,
05.328,2.454358108,,,
05.330,2.493048702,,,
05.332,2.493048702,,,
05.334,2.40277065,,,
05.336,2.364080056,,,
05.338,2.338286327,,,
05.340,2.351183192,,,
05.342,2.351183192,,,
05.344,2.364080056,,,
05.346,2.351183192,,,
05.348,2.389873785,,,
05.350,2.40277065,,,
05.352,2.338286327,,,
05.354,2.325389462,,,
05.356,2.286698869,,,
05.358,2.273802004,,,
05.360,2.286698869,,,
05.362,2.338286327,,,
05.364,2.338286327,,,
05.366,2.312492598,,,
05.368,2.338286327,,,
05.370,2.338286327,,,
05.372,2.312492598,,,
05.374,2.273802004,,,
05.376,2.248008275,,,
05.378,2.235111411,,,
05.380,2.235111411,,,
05.382,2.235111411,,,
05.384,2.299595733,,,
05.386,2.286698869,,,
05.388,2.338286327,,,
05.390,2.325389462,,,
05.392,2.299595733,,,
05.394,2.26090514,,,
05.396,2.222214546,,,
05.398,2.235111411,,,
05.400,2.273802004,,,
05.402,2.286698869,,,
05.404,2.299595733,,,
05.406,2.351183192,,,
05.408,2.338286327,,,
05.410,2.325389462,,,
05.412,2.312492598,,,
05.414,2.299595733,,,
05.416,2.273802004,,,
05.418,2.248008275,,,
05.420,2.26090514,,,
05.422,2.299595733,,,
05.424,2.286698869,,,
05.426,2.325389462,,,
05.428,2.376976921,,,
05.430,2.351183192,,,
05.432,2.312492598,,,
05.434,2.312492598,,,
05.436,2.312492598,,,
05.438,2.299595733,,,
05.440,2.299595733,,,
05.442,2.338286327,,,
05.444,2.389873785,,,
05.446,2.40277065,,,
05.448,2.428564379,,,
05.450,2.389873785,,,
05.452,2.312492598,,,
05.454,2.299595733,,,
05.456,2.286698869,,,
05.458,2.286698869,,,
05.460,2.312492598,,,
05.462,2.338286327,,,
05.464,2.364080056,,,
05.466,2.389873785,,,
05.468,2.389873785,,,
05.470,2.364080056,,,
05.472,2.325389462,,,
05.474,2.338286327,,,
05.476,2.325389462,,,
05.478,2.312492598,,,
05.480,2.325389462,,,
05.482,2.351183192,,,
05.484,2.389873785,,,
05.486,2.40277065,,,
05.488,2.415667514,,,
05.490,2.40277065,,,
05.492,2.364080056,,,
05.494,2.364080056,,,
05.496,2.338286327,,,
05.498,2.312492598,,,
05.500,2.338286327,,,
05.502,2.364080056,,,
05.504,2.364080056,,,
05.506,2.376976921,,,
05.508,2.389873785,,,
05.510,2.376976921,,,
05.512,2.338286327,,,
05.514,2.351183192,,,
05.516,2.325389462,,,
05.518,2.312492598,,,
05.520,2.299595733,,,
05.522,2.351183192,,,
05.524,2.376976921,,,
05.526,2.376976921,,,
05.528,2.376976921,,,
05.530,2.325389462,,,
05.532,2.312492598,,,
05.534,2.299595733,,,
05.536,2.299595733,,,
05.538,2.273802004,,,
05.540,2.299595733,,,
05.542,2.325389462,,,
05.544,2.338286327,,,
05.546,2.351183192,,,
05.548,2.376976921,,,
05.550,2.351183192,,,
05.552,2.299595733,,,
05.554,2.299595733,,,
05.556,2.286698869,,,
05.558,2.273802004,,,
05.560,2.286698869,,,
05.562,2.312492598,,,
05.564,2.338286327,,,
05.566,2.338286327,,,
05.568,2.338286327,,,
05.570,2.312492598,,,
05.572,2.325389462,,,
05.574,2.312492598,,,
05.576,2.273802004,,,
05.578,2.273802004,,,
05.580,2.286698869,,,
05.582,2.299595733,,,
05.584,2.338286327,,,
05.586,2.351183192,,,
05.588,2.325389462,,,
05.590,2.312492598,,,
05.592,2.325389462,,,
05.594,2.299595733,,,
05.596,2.273802004,,,
05.598,2.273802004,,,
05.600,2.299595733,,,
05.602,2.312492598,,,
05.604,2.312492598,,,
05.606,2.338286327,,,
05.608,2.312492598,,,
05.610,2.286698869,,,
05.612,2.273802004,,,
05.614,2.286698869,,,
05.616,2.26090514,,,
05.618,2.235111411,,,
05.620,2.273802004,,,
05.622,2.299595733,,,
05.624,2.325389462,,,
05.626,2.325389462,,,
05.628,2.338286327,,,
05.630,2.312492598,,,
05.632,2.286698869,,,
05.634,2.312492598,,,
05.636,2.286698869,,,
05.638,2.273802004,,,
05.640,2.312492598,,,
05.642,2.312492598,,,
05.644,2.299595733,,,
05.646,2.351183192,,,
05.648,2.376976921,,,
05.650,2.325389462,,,
05.652,2.286698869,,,
05.654,2.235111411,,,
05.656,2.286698869,,,
05.658,2.273802004,,,
05.660,2.299595733,,,
05.662,2.351183192,,,
05.664,2.338286327,,,
05.666,2.338286327,,,
05.668,2.351183192,,,
05.670,2.312492598,,,
05.672,2.286698869,,,
05.674,2.248008275,,,
05.676,2.222214546,,,
05.678,2.248008275,,,
05.680,2.286698869,,,
05.682,2.325389462,,,
05.684,2.325389462,,,
05.686,2.325389462,,,
05.688,2.312492598,,,
05.690,2.273802004,,,
05.692,2.299595733,,,
05.694,2.286698869,,,
05.696,2.286698869,,,
05.698,2.248008275,,,
05.700,2.286698869,,,
05.702,2.312492598,,,
05.704,2.338286327,,,
05.706,2.338286327,,,
05.708,2.338286327,,,
05.710,2.312492598,,,
05.712,2.286698869,,,
05.714,2.286698869,,,
05.716,2.26090514,,,
05.718,2.26090514,,,
05.720,2.286698869,,,
05.722,2.351183192,,,
05.724,2.351183192,,,
05.726,2.364080056,,,
05.728,2.351183192,,,
05.730,2.338286327,,,
05.732,2.299595733,,,
05.734,2.312492598,,,
05.736,2.26090514,,,
05.738,2.273802004,,,
05.740,2.312492598,,,
05.742,2.364080056,,,
05.744,2.338286327,,,
05.746,2.338286327,,,
05.748,2.312492598,,,
05.750,2.286698869,,,
05.752,2.273802004,,,
05.754,2.26090514,,,
05.756,2.222214546,,,
05.758,2.273802004,,,
05.760,2.312492598,,,
05.762,2.325389462,,,
05.764,2.351183192,,,
05.766,2.351183192,,,
05.768,2.351183192,,,
05.770,2.286698869,,,
05.772,2.299595733,,,
05.774,2.235111411,,,
05.776,2.26090514,,,
05.778,2.26090514,,,
05.780,2.325389462,,,
05.782,2.376976921,,,
05.784,2.428564379,,,
05.786,2.454358108,,,
05.788,2.415667514,,,
05.790,2.389873785,,,
05.792,2.351183192,,,
05.794,2.325389462,,,
05.796,2.338286327,,,
05.798,2.364080056,,,
05.800,2.40277065,,,
05.802,2.428564379,,,
05.804,2.454358108,,,
05.806,2.505945566,,,
05.808,2.428564379,,,
05.810,2.40277065,,,
05.812,2.428564379,,,
05.814,2.428564379,,,
05.816,2.415667514,,,
05.818,2.454358108,,,
05.820,2.518842431,,,
05.822,2.531739295,,,
05.824,2.557533025,,,
05.826,2.557533025,,,
05.828,2.583326754,,,
05.830,2.596223618,,,
05.832,2.634914212,,,
05.834,2.634914212,,,
05.836,2.647811076,,,
05.838,2.673604806,,,
05.840,2.725192264,,,
05.842,2.763882858,,,
05.844,2.789676587,,,
05.846,2.802573451,,,
05.848,2.750985993,,,
05.850,2.738089128,,,
05.852,2.712295399,,,
05.854,2.673604806,,,
05.856,2.660707941,,,
05.858,2.712295399,,,
05.860,2.712295399,,,
05.862,2.738089128,,,
05.864,2.725192264,,,
05.866,2.750985993,,,
05.868,2.725192264,,,
05.870,2.725192264,,,
05.872,2.68650167,,,
05.874,2.699398535,,,
05.876,2.660707941,,,
05.878,2.673604806,,,
05.880,2.725192264,,,
05.882,2.725192264,,,
05.884,2.763882858,,,
05.886,2.763882858,,,
05.888,2.738089128,,,
05.890,2.68650167,,,
05.892,2.68650167,,,
05.894,2.660707941,,,
05.896,2.622017347,,,
05.898,2.647811076,,,
05.900,2.68650167,,,
05.902,2.699398535,,,
05.904,2.699398535,,,
05.906,2.763882858,,,
05.908,2.712295399,,,
05.910,2.68650167,,,
05.912,2.712295399,,,
05.914,2.673604806,,,
05.916,2.634914212,,,
05.918,2.634914212,,,
05.920,2.673604806,,,
05.922,2.712295399,,,
05.924,2.712295399,,,
05.926,2.68650167,,,
05.928,2.712295399,,,
05.930,2.673604806,,,
05.932,2.673604806,,,
05.934,2.634914212,,,
05.936,2.634914212,,,
05.938,2.647811076,,,
05.940,2.647811076,,,
05.942,2.634914212,,,
05.944,2.673604806,,,
05.946,2.634914212,,,
05.948,2.634914212,,,
05.950,2.596223618,,,
05.952,2.570429889,,,
05.954,2.531739295,,,
05.956,2.531739295,,,
05.958,2.583326754,,,
05.960,2.660707941,,,
05.962,2.815470316,,,
05.964,3.008923284,,,
05.966,3.124995065,,,
05.968,3.241066846,,,
05.970,3.395829221,,,
05.972,3.524797867,,,
05.974,3.7311477,,,
05.976,3.989084991,,,
05.978,4.337300334,,,
05.980,4.646825084,,,
05.982,4.685515677,,,
05.984,4.672618813,,,
05.986,4.543650167,,,
05.988,4.337300334,,,
05.990,4.092259907,,,
05.992,3.860116345,,,
05.994,3.550591596,,,
05.996,3.266860575,,,
05.998,2.983129555,,,
06.000,2.68650167,,,
06.002,2.480151837,,,
06.004,2.480151837,,,
06.006,2.557533025,,,
06.008,2.531739295,,,
06.010,2.557533025,,,
06.012,2.583326754,,,
06.014,2.634914212,,,
06.016,2.68650167,,,
06.018,2.750985993,,,
06.020,2.763882858,,,
06.022,2.789676587,,,
06.024,2.789676587,,,
06.026,2.763882858,,,
06.028,2.738089128,,,
06.030,2.725192264,,,
06.032,2.699398535,,,
06.034,2.673604806,,,
06.036,2.68650167,,,
06.038,2.712295399,,,
06.040,2.725192264,,,
06.042,2.738089128,,,
06.044,2.776779722,,,
06.046,2.776779722,,,
06.048,2.738089128,,,
06.050,2.725192264,,,
06.052,2.725192264,,,
06.054,2.673604806,,,
06.056,2.68650167,,,
06.058,2.725192264,,,
06.060,2.725192264,,,
06.062,2.738089128,,,
06.064,2.750985993,,,
06.066,2.763882858,,,
06.068,2.725192264,,,
06.070,2.699398535,,,
06.072,2.699398535,,,
06.074,2.673604806,,,
06.076,2.699398535,,,
06.078,2.738089128,,,
06.080,2.763882858,,,
06.082,2.776779722,,,
06.084,2.802573451,,,
06.086,2.82836718,,,
06.088,2.789676587,,,
06.090,2.738089128,,,
06.092,2.725192264,,,
06.094,2.738089128,,,
06.096,2.750985993,,,
06.098,2.789676587,,,
06.100,2.776779722,,,
06.102,2.82836718,,,
06.104,2.867057774,,,
06.106,2.841264045,,,
06.108,2.802573451,,,
06.110,2.763882858,,,
06.112,2.763882858,,,
06.114,2.763882858,,,
06.116,2.763882858,,,
06.118,2.802573451,,,
06.120,2.82836718,,,
06.122,2.879954639,,,
06.124,2.905748368,,,
06.126,2.879954639,,,
06.128,2.867057774,,,
06.130,2.879954639,,,
06.132,2.879954639,,,
06.134,2.841264045,,,
06.136,2.82836718,,,
06.138,2.854160909,,,
06.140,2.854160909,,,
06.142,2.854160909,,,
06.144,2.867057774,,,
06.146,2.82836718,,,
06.148,2.879954639,,,
06.150,2.905748368,,,
06.152,2.879954639,,,
06.154,2.854160909,,,
06.156,2.905748368,,,
06.158,2.944438961,,,
06.160,2.970232691,,,
06.162,3.034717013,,,
06.164,3.021820149,,,
06.166,3.047613878,,,
06.168,3.047613878,,,
06.170,3.073407607,,,
06.172,3.047613878,,,
06.174,3.034717013,,,
06.176,3.086304472,,,
06.178,3.112098201,,,
06.180,3.124995065,,,
06.182,3.202376253,,,
06.184,3.189479388,,,
06.186,3.150788794,,,
06.188,3.13789193,,,
06.190,3.215273117,,,
06.192,3.266860575,,,
06.194,3.228169982,,,
06.196,3.228169982,,,
06.198,3.228169982,,,
06.200,3.253963711,,,
06.202,3.292654305,,,
06.204,3.27975744,,,
06.206,3.292654305,,,
06.208,3.266860575,,,
06.210,3.266860575,,,
06.212,3.241066846,,,
06.214,3.228169982,,,
06.216,3.241066846,,,
06.218,3.266860575,,,
06.220,3.253963711,,,
06.222,3.253963711,,,
06.224,3.241066846,,,
06.226,3.215273117,,,
06.228,3.189479388,,,
06.230,3.150788794,,,
06.232,3.073407607,,,
06.234,3.034717013,,,
06.236,3.021820149,,,
06.238,3.021820149,,,
06.240,3.021820149,,,
06.242,2.99602642,,,
06.244,2.957335826,,,
06.246,2.879954639,,,
06.248,2.841264045,,,
06.250,2.815470316,,,
06.252,2.802573451,,,
06.254,2.712295399,,,
06.256,2.712295399,,,
06.258,2.699398535,,,
06.260,2.763882858,,,
06.262,2.725192264,,,
06.264,2.712295399,,,
06.266,2.660707941,,,
06.268,2.583326754,,,
06.270,2.54463616,,,
06.272,2.518842431,,,
06.274,2.493048702,,,
06.276,2.467254973,,,
06.278,2.505945566,,,
06.280,2.505945566,,,
06.282,2.505945566,,,
06.284,2.531739295,,,
06.286,2.493048702,,,
06.288,2.428564379,,,
06.290,2.364080056,,,
06.292,2.376976921,,,
06.294,2.40277065,,,
06.296,2.415667514,,,
06.298,2.428564379,,,
06.300,2.454358108,,,
06.302,2.467254973,,,
06.304,2.467254973,,,
06.306,2.40277065,,,
06.308,2.376976921,,,
06.310,2.338286327,,,
06.312,2.351183192,,,
06.314,2.364080056,,,
06.316,2.376976921,,,
06.318,2.376976921,,,
06.320,2.415667514,,,
06.322,2.415667514,,,
06.324,2.428564379,,,
06.326,2.364080056,,,
06.328,2.338286327,,,
06.330,2.338286327,,,
06.332,2.312492598,,,
06.334,2.312492598,,,
06.336,2.376976921,,,
06.338,2.389873785,,,
06.340,2.389873785,,,
06.342,2.376976921,,,
06.344,2.351183192,,,
06.346,2.312492598,,,
06.348,2.286698869,,,
06.350,2.273802004,,,
06.352,2.26090514,,,
06.354,2.273802004,,,
06.356,2.312492598,,,
06.358,2.364080056,,,
06.360,2.376976921,,,
06.362,2.389873785,,,
06.364,2.351183192,,,
06.366,2.312492598,,,
06.368,2.273802004,,,
06.370,2.222214546,,,
06.372,2.235111411,,,
06.374,2.286698869,,,
06.376,2.299595733,,,
06.378,2.338286327,,,
06.380,2.338286327,,,
06.382,2.376976921,,,
06.384,2.351183192,,,
06.386,2.312492598,,,
06.388,2.299595733,,,
06.390,2.299595733,,,
06.392,2.273802004,,,
06.394,2.312492598,,,
06.396,2.325389462,,,
06.398,2.364080056,,,
06.400,2.376976921,,,
06.402,2.389873785,,,
06.404,2.376976921,,,
06.406,2.338286327,,,
06.408,2.325389462,,,
06.410,2.299595733,,,
06.412,2.286698869,,,
06.414,2.312492598,,,
06.416,2.338286327,,,
06.418,2.364080056,,,
06.420,2.364080056,,,
06.422,2.376976921,,,
06.424,2.325389462,,,
06.426,2.325389462,,,
06.428,2.338286327,,,
06.430,2.325389462,,,
06.432,2.312492598,,,
06.434,2.351183192,,,
06.436,2.376976921,,,
06.438,2.338286327,,,
06.440,2.351183192,,,
06.442,2.312492598,,,
06.444,2.26090514,,,
06.446,2.209317681,,,
06.448,2.196420817,,,
06.450,2.209317681,,,
06.452,2.222214546,,,
06.454,2.248008275,,,
06.456,2.248008275,,,
06.458,2.325389462,,,
06.460,2.338286327,,,
06.462,2.325389462,,,
06.464,2.325389462,,,
06.466,2.273802004,,,
06.468,2.248008275,,,
06.470,2.235111411,,,
06.472,2.209317681,,,
06.474,2.26090514,,,
06.476,2.286698869,,,
06.478,2.325389462,,,
06.480,2.338286327,,,
06.482,2.325389462,,,
06.484,2.312492598,,,
06.486,2.26090514,,,
06.488,2.248008275,,,
06.490,2.222214546,,,
06.492,2.222214546,,,
06.494,2.248008275,,,
06.496,2.248008275,,,
06.498,2.26090514,,,
06.500,2.26090514,,,
06.502,2.299595733,,,
06.504,2.26090514,,,
06.506,2.222214546,,,
06.508,2.222214546,,,
06.510,2.235111411,,,
06.512,2.209317681,,,
06.514,2.209317681,,,
06.516,2.248008275,,,
06.518,2.235111411,,,
06.520,2.222214546,,,
06.522,2.248008275,,,
06.524,2.235111411,,,
06.526,2.196420817,,,
06.528,2.119039629,,,
06.530,2.157730223,,,
06.532,2.157730223,,,
06.534,2.209317681,,,
06.536,2.222214546,,,
06.538,2.222214546,,,
06.540,2.248008275,,,
06.542,2.248008275,,,
06.544,2.235111411,,,
06.546,2.248008275,,,
06.548,2.183523952,,,
06.550,2.157730223,,,
06.552,2.157730223,,,
06.554,2.170627088,,,
06.556,2.209317681,,,
06.558,2.222214546,,,
06.560,2.248008275,,,
06.562,2.248008275,,,
06.564,2.235111411,,,
06.566,2.209317681,,,
06.568,2.196420817,,,
06.570,2.157730223,,,
06.572,2.144833359,,,
06.574,2.170627088,,,
06.576,2.157730223,,,
06.578,2.209317681,,,
06.580,2.248008275,,,
06.582,2.248008275,,,
06.584,2.235111411,,,
06.586,2.196420817,,,
06.588,2.157730223,,,
06.590,2.183523952,,,
06.592,2.157730223,,,
06.594,2.170627088,,,
06.596,2.157730223,,,
06.598,2.196420817,,,
06.600,2.196420817,,,
06.602,2.209317681,,,
06.604,2.209317681,,,
06.606,2.170627088,,,
06.608,2.170627088,,,
06.610,2.144833359,,,
06.612,2.183523952,,,
06.614,2.235111411,,,
06.616,2.222214546,,,
06.618,2.248008275,,,
06.620,2.209317681,,,
06.622,2.209317681,,,
06.624,2.196420817,,,
06.626,2.131936494,,,
06.628,2.144833359,,,
06.630,2.131936494,,,
06.632,2.196420817,,,
06.634,2.222214546,,,
06.636,2.183523952,,,
06.638,2.183523952,,,
06.640,2.235111411,,,
06.642,2.248008275,,,
06.644,2.222214546,,,
06.646,2.170627088,,,
06.648,2.196420817,,,
06.650,2.183523952,,,
06.652,2.144833359,,,
06.654,2.196420817,,,
06.656,2.209317681,,,
06.658,2.235111411,,,
06.660,2.235111411,,,
06.662,2.235111411,,,
06.664,2.209317681,,,
06.666,2.170627088,,,
06.668,2.170627088,,,
06.670,2.157730223,,,
06.672,2.170627088,,,
06.674,2.26090514,,,
06.676,2.273802004,,,
06.678,2.286698869,,,
06.680,2.312492598,,,
06.682,2.338286327,,,
06.684,2.273802004,,,
06.686,2.248008275,,,
06.688,2.248008275,,,
06.690,2.248008275,,,
06.692,2.235111411,,,
06.694,2.248008275,,,
06.696,2.273802004,,,
06.698,2.273802004,,,
06.700,2.312492598,,,
06.702,2.338286327,,,
06.704,2.312492598,,,
06.706,2.286698869,,,
06.708,2.286698869,,,
06.710,2.286698869,,,
06.712,2.338286327,,,
06.714,2.325389462,,,
06.716,2.389873785,,,
06.718,2.351183192,,,
06.720,2.428564379,,,
06.722,2.364080056,,,
06.724,2.351183192,,,
06.726,2.325389462,,,
06.728,2.312492598,,,
06.730,2.286698869,,,
06.732,2.312492598,,,
06.734,2.338286327,,,
06.736,2.338286327,,,
06.738,2.325389462,,,
06.740,2.364080056,,,
06.742,2.26090514,,,
06.744,2.209317681,,,
06.746,2.209317681,,,
06.748,2.196420817,,,
06.750,2.157730223,,,
06.752,2.131936494,,,
06.754,2.170627088,,,
06.756,2.248008275,,,
06.758,2.183523952,,,
06.760,2.170627088,,,
06.762,2.157730223,,,
06.764,2.157730223,,,
06.766,2.170627088,,,
06.768,2.170627088,,,
06.770,2.119039629,,,
06.772,2.144833359,,,
06.774,2.196420817,,,
06.776,2.144833359,,,
06.778,2.209317681,,,
06.780,2.209317681,,,
06.782,2.170627088,,,
06.784,2.170627088,,,
06.786,2.157730223,,,
06.788,2.131936494,,,
06.790,2.106142765,,,
06.792,2.106142765,,,
06.794,2.157730223,,,
06.796,2.170627088,,,
06.798,2.157730223,,,
06.800,2.183523952,,,
06.802,2.131936494,,,
06.804,2.106142765,,,
06.806,2.119039629,,,
06.808,2.119039629,,,
06.810,2.106142765,,,
06.812,2.119039629,,,
06.814,2.170627088,,,
06.816,2.183523952,,,
06.818,2.196420817,,,
06.820,2.170627088,,,
06.822,2.157730223,,,
06.824,2.106142765,,,
06.826,2.106142765,,,
06.828,2.106142765,,,
06.830,2.106142765,,,
06.832,2.054555307,,,
06.834,2.080349036,,,
06.836,2.119039629,,,
06.838,2.119039629,,,
06.840,2.0932459,,,
06.842,2.041658442,,,
06.844,1.977174119,,,
06.846,2.002967848,,,
06.848,2.028761578,,,
06.850,2.131936494,,,
06.852,2.299595733,,,
06.854,2.441461244,,,
06.856,2.570429889,,,
06.858,2.725192264,,,
06.860,2.918645232,,,
06.862,3.086304472,,,
06.864,3.305551169,,,
06.866,3.576385325,,,
06.868,3.782735158,,,
06.870,3.885910074,,,
06.872,3.885910074,,,
06.874,3.808528887,,,
06.876,3.692457106,,,
06.878,3.524797867,,,
06.880,3.382932356,,,
06.882,3.112098201,,,
06.884,2.802573451,,,
06.886,2.428564379,,,
06.888,2.157730223,,,
06.890,1.95138039,,,
06.892,1.899792932,,,
06.894,1.899792932,,,
06.896,1.964277255,,,
06.898,2.028761578,,,
06.900,2.041658442,,,
06.902,2.067452171,,,
06.904,2.131936494,,,
06.906,2.183523952,,,
06.908,2.170627088,,,
06.910,2.222214546,,,
06.912,2.222214546,,,
06.914,2.248008275,,,
06.916,2.248008275,,,
06.918,2.248008275,,,
06.920,2.235111411,,,
06.922,2.222214546,,,
06.924,2.183523952,,,
06.926,2.157730223,,,
06.928,2.157730223,,,
06.930,2.157730223,,,
06.932,2.209317681,,,
06.934,2.209317681,,,
06.936,2.209317681,,,
06.938,2.26090514,,,
06.940,2.235111411,,,
06.942,2.209317681,,,
06.944,2.209317681,,,
06.946,2.222214546,,,
06.948,2.183523952,,,
06.950,2.222214546,,,
06.952,2.286698869,,,
06.954,2.26090514,,,
06.956,2.26090514,,,
06.958,2.286698869,,,
06.960,2.299595733,,,
06.962,2.273802004,,,
06.964,2.222214546,,,
06.966,2.209317681,,,
06.968,2.196420817,,,
06.970,2.222214546,,,
06.972,2.286698869,,,
06.974,2.299595733,,,
06.976,2.312492598,,,
06.978,2.376976921,,,
06.980,2.312492598,,,
06.982,2.273802004,,,
06.984,2.273802004,,,
06.986,2.26090514,,,
06.988,2.273802004,,,
06.990,2.273802004,,,
06.992,2.299595733,,,
06.994,2.312492598,,,
06.996,2.325389462,,,
06.998,2.351183192,,,
07.000,2.312492598,,,
07.002,2.325389462,,,
07.004,2.338286327,,,
07.006,2.312492598,,,
07.008,2.299595733,,,
07.010,2.351183192,,,
07.012,2.376976921,,,
07.014,2.376976921,,,
07.016,2.40277065,,,
07.018,2.40277065,,,
07.020,2.364080056,,,
07.022,2.364080056,,,
07.024,2.364080056,,,
07.026,2.364080056,,,
07.028,2.351183192,,,
07.030,2.364080056,,,
07.032,2.441461244,,,
07.034,2.505945566,,,
07.036,2.505945566,,,
07.038,2.505945566,,,
07.040,2.480151837,,,
07.042,2.493048702,,,
07.044,2.480151837,,,
07.046,2.480151837,,,
07.048,2.493048702,,,
07.050,2.505945566,,,
07.052,2.518842431,,,
07.054,2.505945566,,,
07.056,2.54463616,,,
07.058,2.596223618,,,
07.060,2.622017347,,,
07.062,2.596223618,,,
07.064,2.609120483,,,
07.066,2.609120483,,,
07.068,2.634914212,,,
07.070,2.712295399,,,
07.072,2.750985993,,,
07.074,2.750985993,,,
07.076,2.725192264,,,
07.078,2.776779722,,,
07.080,2.776779722,,,
07.082,2.750985993,,,
07.084,2.725192264,,,
07.086,2.750985993,,,
07.088,2.738089128,,,
07.090,2.776779722,,,
07.092,2.776779722,,,
07.094,2.789676587,,,
07.096,2.82836718,,,
07.098,2.841264045,,,
07.100,2.802573451,,,
07.102,2.789676587,,,
07.104,2.789676587,,,
07.106,2.750985993,,,
07.108,2.738089128,,,
07.110,2.789676587,,,
07.112,2.802573451,,,
07.114,2.802573451,,,
07.116,2.789676587,,,
07.118,2.789676587,,,
07.120,2.750985993,,,
07.122,2.673604806,,,
07.124,2.647811076,,,
07.126,2.622017347,,,
07.128,2.609120483,,,
07.130,2.596223618,,,
07.132,2.583326754,,,
07.134,2.531739295,,,
07.136,2.557533025,,,
07.138,2.531739295,,,
07.140,2.505945566,,,
07.142,2.415667514,,,
07.144,2.389873785,,,
07.146,2.376976921,,,
07.148,2.376976921,,,
07.150,2.376976921,,,
07.152,2.376976921,,,
07.154,2.376976921,,,
07.156,2.40277065,,,
07.158,2.351183192,,,
07.160,2.325389462,,,
07.162,2.26090514,,,
07.164,2.235111411,,,
07.166,2.248008275,,,
07.168,2.248008275,,,
07.170,2.286698869,,,
07.172,2.273802004,,,
07.174,2.286698869,,,
07.176,2.312492598,,,
07.178,2.26090514,,,
07.180,2.222214546,,,
07.182,2.157730223,,,
07.184,2.196420817,,,
07.186,2.170627088,,,
07.188,2.157730223,,,
07.190,2.183523952,,,
07.192,2.209317681,,,
07.194,2.222214546,,,
07.196,2.26090514,,,
07.198,2.299595733,,,
07.200,2.209317681,,,
07.202,2.196420817,,,
07.204,2.131936494,,,
07.206,2.157730223,,,
07.208,2.157730223,,,
07.210,2.196420817,,,
07.212,2.196420817,,,
07.214,2.196420817,,,
07.216,2.222214546,,,
07.218,2.222214546,,,
07.220,2.196420817,,,
07.222,2.170627088,,,
07.224,2.183523952,,,
07.226,2.157730223,,,
07.228,2.183523952,,,
07.230,2.222214546,,,
07.232,2.248008275,,,
07.234,2.26090514,,,
07.236,2.26090514,,,
07.238,2.209317681,,,
07.240,2.196420817,,,
07.242,2.183523952,,,
07.244,2.144833359,,,
07.246,2.144833359,,,
07.248,2.157730223,,,
07.250,2.209317681,,,
07.252,2.209317681,,,
07.254,2.222214546,,,
07.256,2.273802004,,,
07.258,2.209317681,,,
07.260,2.209317681,,,
07.262,2.222214546,,,
07.264,2.183523952,,,
07.266,2.170627088,,,
07.268,2.222214546,,,
07.270,2.273802004,,,
07.272,2.273802004,,,
07.274,2.273802004,,,
07.276,2.273802004,,,
07.278,2.235111411,,,
07.280,2.196420817,,,
07.282,2.196420817,,,
07.284,2.196420817,,,
07.286,2.170627088,,,
07.288,2.170627088,,,
07.290,2.222214546,,,
07.292,2.222214546,,,
07.294,2.273802004,,,
07.296,2.273802004,,,
07.298,2.26090514,,,
07.300,2.209317681,,,
07.302,2.170627088,,,
07.304,2.196420817,,,
07.306,2.196420817,,,
07.308,2.209317681,,,
07.310,2.209317681,,,
07.312,2.248008275,,,
07.314,2.26090514,,,
07.316,2.325389462,,,
07.318,2.286698869,,,
07.320,2.235111411,,,
07.322,2.222214546,,,
07.324,2.170627088,,,
07.326,2.157730223,,,
07.328,2.196420817,,,
07.330,2.209317681,,,
07.332,2.235111411,,,
07.334,2.286698869,,,
07.336,2.299595733,,,
07.338,2.286698869,,,
07.340,2.209317681,,,
07.342,2.144833359,,,
07.344,2.196420817,,,
07.346,2.196420817,,,
07.348,2.183523952,,,
07.350,2.235111411,,,
07.352,2.26090514,,,
07.354,2.26090514,,,
07.356,2.273802004,,,
07.358,2.235111411,,,
07.360,2.196420817,,,
07.362,2.157730223,,,
07.364,2.144833359,,,
07.366,2.157730223,,,
07.368,2.196420817,,,
07.370,2.248008275,,,
07.372,2.222214546,,,
07.374,2.222214546,,,
07.376,2.273802004,,,
07.378,2.209317681,,,
07.380,2.157730223,,,
07.382,2.157730223,,,
07.384,2.157730223,,,
07.386,2.144833359,,,
07.388,2.157730223,,,
07.390,2.209317681,,,
07.392,2.196420817,,,
07.394,2.209317681,,,
07.396,2.26090514,,,
07.398,2.209317681,,,
07.400,2.170627088,,,
07.402,2.131936494,,,
07.404,2.144833359,,,
07.406,2.196420817,,,
07.408,2.157730223,,,
07.410,2.170627088,,,
07.412,2.196420817,,,
07.414,2.248008275,,,
07.416,2.209317681,,,
07.418,2.209317681,,,
07.420,2.170627088,,,
07.422,2.119039629,,,
07.424,2.144833359,,,
07.426,2.131936494,,,
07.428,2.144833359,,,
07.430,2.170627088,,,
07.432,2.183523952,,,
07.434,2.209317681,,,
07.436,2.196420817,,,
07.438,2.183523952,,,
07.440,2.144833359,,,
07.442,2.144833359,,,
07.444,2.131936494,,,
07.446,2.144833359,,,
07.448,2.183523952,,,
07.450,2.209317681,,,
07.452,2.209317681,,,
07.454,2.222214546,,,
07.456,2.196420817,,,
07.458,2.183523952,,,
07.460,2.157730223,,,
07.462,2.157730223,,,
07.464,2.0932459,,,
07.466,2.106142765,,,
07.468,2.144833359,,,
07.470,2.144833359,,,
07.472,2.170627088,,,
07.474,2.183523952,,,
07.476,2.209317681,,,
07.478,2.157730223,,,
07.480,2.119039629,,,
07.482,2.119039629,,,
07.484,2.157730223,,,
07.486,2.131936494,,,
07.488,2.183523952,,,
07.490,2.183523952,,,
07.492,2.209317681,,,
07.494,2.209317681,,,
07.496,2.170627088,,,
07.498,2.183523952,,,
07.500,2.183523952,,,
07.502,2.157730223,,,
07.504,2.106142765,,,
07.506,2.080349036,,,
07.508,2.157730223,,,
07.510,2.196420817,,,
07.512,2.170627088,,,
07.514,2.209317681,,,
07.516,2.209317681,,,
07.518,2.170627088,,,
07.520,2.157730223,,,
07.522,2.144833359,,,
07.524,2.119039629,,,
07.526,2.0932459,,,
07.528,2.131936494,,,
07.530,2.157730223,,,
07.532,2.196420817,,,
07.534,2.196420817,,,
07.536,2.170627088,,,
07.538,2.183523952,,,
07.540,2.183523952,,,
07.542,2.196420817,,,
07.544,2.131936494,,,
07.546,2.183523952,,,
07.548,2.248008275,,,
07.550,2.248008275,,,
07.552,2.299595733,,,
07.554,2.286698869,,,
07.556,2.286698869,,,
07.558,2.248008275,,,
07.560,2.209317681,,,
07.562,2.196420817,,,
07.564,2.170627088,,,
07.566,2.183523952,,,
07.568,2.26090514,,,
07.570,2.325389462,,,
07.572,2.325389462,,,
07.574,2.338286327,,,
07.576,2.325389462,,,
07.578,2.286698869,,,
07.580,2.273802004,,,
07.582,2.312492598,,,
07.584,2.286698869,,,
07.586,2.312492598,,,
07.588,2.299595733,,,
07.590,2.351183192,,,
07.592,2.364080056,,,
07.594,2.376976921,,,
07.596,2.338286327,,,
07.598,2.299595733,,,
07.600,2.286698869,,,
07.602,2.286698869,,,
07.604,2.26090514,,,
07.606,2.26090514,,,
07.608,2.26090514,,,
07.610,2.26090514,,,
07.612,2.325389462,,,
07.614,2.273802004,,,
07.616,2.209317681,,,
07.618,2.209317681,,,
07.620,2.170627088,,,
07.622,2.157730223,,,
07.624,2.106142765,,,
07.626,2.170627088,,,
07.628,2.183523952,,,
07.630,2.157730223,,,
07.632,2.183523952,,,
07.634,2.196420817,,,
07.636,2.183523952,,,
07.638,2.157730223,,,
07.640,2.106142765,,,
07.642,2.0932459,,,
07.644,2.119039629,,,
07.646,2.119039629,,,
07.648,2.144833359,,,
07.650,2.157730223,,,
07.652,2.196420817,,,
07.654,2.209317681,,,
07.656,2.183523952,,,
07.658,2.144833359,,,
07.660,2.144833359,,,
07.662,2.144833359,,,
07.664,2.067452171,,,
07.666,2.119039629,,,
07.668,2.144833359,,,
07.670,2.157730223,,,
07.672,2.106142765,,,
07.674,2.144833359,,,
07.676,2.170627088,,,
07.678,2.170627088,,,
07.680,2.157730223,,,
07.682,2.119039629,,,
07.684,2.106142765,,,
07.686,2.106142765,,,
07.688,2.131936494,,,
07.690,2.183523952,,,
07.692,2.170627088,,,
07.694,2.170627088,,,
07.696,2.106142765,,,
07.698,2.106142765,,,
07.700,2.067452171,,,
07.702,2.041658442,,,
07.704,2.041658442,,,
07.706,2.080349036,,,
07.708,2.067452171,,,
07.710,2.015864713,,,
07.712,2.067452171,,,
07.714,2.106142765,,,
07.716,2.157730223,,,
07.718,2.248008275,,,
07.720,2.351183192,,,
07.722,2.454358108,,,
07.724,2.531739295,,,
07.726,2.699398535,,,
07.728,2.854160909,,,
07.730,3.073407607,,,
07.732,3.344241763,,,
07.734,3.524797867,,,
07.736,3.744044564,,,
07.738,3.705353971,,,
07.740,3.653766512,,,
07.742,3.473210408,,,
07.744,3.357138627,,,
07.746,3.189479388,,,
07.748,3.073407607,,,
07.750,2.905748368,,,
07.752,2.673604806,,,
07.754,2.389873785,,,
07.756,2.106142765,,,
07.758,1.886896067,,,
07.760,1.873999203,,,
07.762,1.925586661,,,
07.764,1.990070984,,,
07.766,2.067452171,,,
07.768,2.106142765,,,
07.770,2.170627088,,,
07.772,2.209317681,,,
07.774,2.235111411,,,
07.776,2.26090514,,,
07.778,2.209317681,,,
07.780,2.183523952,,,
07.782,2.131936494,,,
07.784,2.144833359,,,
07.786,2.144833359,,,
07.788,2.170627088,,,
07.790,2.209317681,,,
07.792,2.248008275,,,
07.794,2.26090514,,,
07.796,2.235111411,,,
07.798,2.196420817,,,
07.800,2.144833359,,,
07.802,2.131936494,,,
07.804,2.170627088,,,
07.806,2.144833359,,,
07.808,2.157730223,,,
07.810,2.196420817,,,
07.812,2.222214546,,,
07.814,2.235111411,,,
07.816,2.196420817,,,
07.818,2.196420817,,,
07.820,2.222214546,,,
07.822,2.209317681,,,
07.824,2.235111411,,,
07.826,2.222214546,,,
07.828,2.222214546,,,
07.830,2.235111411,,,
07.832,2.286698869,,,
07.834,2.26090514,,,
07.836,2.248008275,,,
07.838,2.26090514,,,
07.840,2.248008275,,,
07.842,2.196420817,,,
07.844,2.222214546,,,
07.846,2.273802004,,,
07.848,2.312492598,,,
07.850,2.286698869,,,
07.852,2.286698869,,,
07.854,2.299595733,,,
07.856,2.364080056,,,
07.858,2.389873785,,,
07.860,2.415667514,,,
07.862,2.454358108,,,
07.864,2.493048702,,,
07.866,2.557533025,,,
07.868,2.557533025,,,
07.870,2.647811076,,,
07.872,2.673604806,,,
07.874,2.673604806,,,
07.876,2.68650167,,,
07.878,2.699398535,,,
07.880,2.634914212,,,
07.882,2.660707941,,,
07.884,2.712295399,,,
07.886,2.712295399,,,
07.888,2.763882858,,,
07.890,2.802573451,,,
07.892,2.82836718,,,
07.894,2.776779722,,,
07.896,2.802573451,,,
07.898,2.789676587,,,
07.900,2.750985993,,,
07.902,2.802573451,,,
07.904,2.82836718,,,
07.906,2.918645232,,,
07.908,2.944438961,,,
07.910,2.905748368,,,
07.912,2.931542097,,,
07.914,2.944438961,,,
07.916,2.918645232,,,
07.918,2.931542097,,,
07.920,2.918645232,,,
07.922,2.931542097,,,
07.924,2.957335826,,,
07.926,3.008923284,,,
07.928,2.99602642,,,
07.930,3.021820149,,,
07.932,3.099201336,,,
07.934,3.112098201,,,
07.936,3.099201336,,,
07.938,3.124995065,,,
07.940,3.086304472,,,
07.942,3.124995065,,,
07.944,3.124995065,,,
07.946,3.189479388,,,
07.948,3.163685659,,,
07.950,3.241066846,,,
07.952,3.241066846,,,
07.954,3.215273117,,,
07.956,3.202376253,,,
07.958,3.150788794,,,
07.960,3.163685659,,,
07.962,3.176582524,,,
07.964,3.189479388,,,
07.966,3.215273117,,,
07.968,3.27975744,,,
07.970,3.202376253,,,
07.972,3.27975744,,,
07.974,3.241066846,,,
07.976,3.228169982,,,
07.978,3.176582524,,,
07.980,3.124995065,,,
07.982,3.150788794,,,
07.984,3.124995065,,,
07.986,3.150788794,,,
07.988,3.150788794,,,
07.990,3.13789193,,,
07.992,3.13789193,,,
07.994,3.073407607,,,
07.996,3.008923284,,,
07.998,3.034717013,,,
08.000,2.99602642,,,
08.002,2.918645232,,,
08.004,2.905748368,,,
08.006,2.892851503,,,
08.008,2.892851503,,,
08.010,2.931542097,,,
08.012,2.867057774,,,
08.014,2.82836718,,,
08.016,2.776779722,,,
08.018,2.750985993,,,
08.020,2.712295399,,,
08.022,2.738089128,,,
08.024,2.725192264,,,
08.026,2.712295399,,,
08.028,2.789676587,,,
08.030,2.738089128,,,
08.032,2.725192264,,,
08.034,2.673604806,,,
08.036,2.634914212,,,
08.038,2.622017347,,,
08.040,2.622017347,,,
08.042,2.609120483,,,
08.044,2.647811076,,,
08.046,2.647811076,,,
08.048,2.634914212,,,
08.050,2.622017347,,,
08.052,2.622017347,,,
08.054,2.609120483,,,
08.056,2.570429889,,,
08.058,2.54463616,,,
08.060,2.54463616,,,
08.062,2.505945566,,,
08.064,2.54463616,,,
08.066,2.583326754,,,
08.068,2.583326754,,,
08.070,2.634914212,,,
08.072,2.634914212,,,
08.074,2.583326754,,,
08.076,2.583326754,,,
08.078,2.557533025,,,
08.080,2.531739295,,,
08.082,2.54463616,,,
08.084,2.583326754,,,
08.086,2.583326754,,,
08.088,2.634914212,,,
08.090,2.660707941,,,
08.092,2.596223618,,,
08.094,2.570429889,,,
08.096,2.557533025,,,
08.098,2.531739295,,,
08.100,2.557533025,,,
08.102,2.505945566,,,
08.104,2.557533025,,,
08.106,2.583326754,,,
08.108,2.583326754,,,
08.110,2.609120483,,,
08.112,2.570429889,,,
08.114,2.54463616,,,
08.116,2.54463616,,,
08.118,2.518842431,,,
08.120,2.518842431,,,
08.122,2.531739295,,,
08.124,2.557533025,,,
08.126,2.583326754,,,
08.128,2.596223618,,,
08.130,2.622017347,,,
08.132,2.583326754,,,
08.134,2.570429889,,,
08.136,2.531739295,,,
08.138,2.505945566,,,
08.140,2.493048702,,,
08.142,2.480151837,,,
08.144,2.493048702,,,
08.146,2.531739295,,,
08.148,2.557533025,,,
08.150,2.583326754,,,
08.152,2.557533025,,,
08.154,2.518842431,,,
08.156,2.505945566,,,
08.158,2.467254973,,,
08.160,2.480151837,,,
08.162,2.480151837,,,
08.164,2.531739295,,,
08.166,2.54463616,,,
08.168,2.570429889,,,
08.170,2.54463616,,,
08.172,2.54463616,,,
08.174,2.493048702,,,
08.176,2.480151837,,,
08.178,2.454358108,,,
08.180,2.428564379,,,
08.182,2.441461244,,,
08.184,2.493048702,,,
08.186,2.493048702,,,
08.188,2.480151837,,,
08.190,2.518842431,,,
08.192,2.493048702,,,
08.194,2.467254973,,,
08.196,2.415667514,,,
08.198,2.480151837,,,
08.200,2.467254973,,,
08.202,2.441461244,,,
08.204,2.467254973,,,
08.206,2.480151837,,,
08.208,2.505945566,,,
08.210,2.454358108,,,
08.212,2.480151837,,,
08.214,2.415667514,,,
08.216,2.351183192,,,
08.218,2.338286327,,,
08.220,2.325389462,,,
08.222,2.376976921,,,
08.224,2.415667514,,,
08.226,2.441461244,,,
08.228,2.480151837,,,
08.230,2.376976921,,,
08.232,2.454358108,,,
08.234,2.428564379,,,
08.236,2.428564379,,,
08.238,2.376976921,,,
08.240,2.389873785,,,
08.242,2.351183192,,,
08.244,2.364080056,,,
08.246,2.428564379,,,
08.248,2.441461244,,,
08.250,2.40277065,,,
08.252,2.376976921,,,
08.254,2.351183192,,,
08.256,2.376976921,,,
08.258,2.338286327,,,
08.260,2.299595733,,,
08.262,2.40277065,,,
08.264,2.454358108,,,
08.266,2.389873785,,,
08.268,2.40277065,,,
08.270,2.493048702,,,
08.272,2.364080056,,,
08.274,2.351183192,,,
08.276,2.299595733,,,
08.278,2.325389462,,,
08.280,2.364080056,,,
08.282,2.325389462,,,
08.284,2.364080056,,,
08.286,2.325389462,,,
08.288,2.351183192,,,
08.290,2.376976921,,,
08.292,2.376976921,,,
08.294,2.325389462,,,
08.296,2.338286327,,,
08.298,2.299595733,,,
08.300,2.248008275,,,
08.302,2.338286327,,,
08.304,2.351183192,,,
08.306,2.338286327,,,
08.308,2.351183192,,,
08.310,2.376976921,,,
08.312,2.286698869,,,
08.314,2.286698869,,,
08.316,2.312492598,,,
08.318,2.273802004,,,
08.320,2.26090514,,,
08.322,2.273802004,,,
08.324,2.312492598,,,
08.326,2.312492598,,,
08.328,2.299595733,,,
08.330,2.325389462,,,
08.332,2.286698869,,,
08.334,2.26090514,,,
08.336,2.26090514,,,
08.338,2.235111411,,,
08.340,2.209317681,,,
08.342,2.248008275,,,
08.344,2.273802004,,,
08.346,2.273802004,,,
08.348,2.286698869,,,
08.350,2.26090514,,,
08.352,2.26090514,,,
08.354,2.248008275,,,
08.356,2.26090514,,,
08.358,2.196420817,,,
08.360,2.235111411,,,
08.362,2.248008275,,,
08.364,2.26090514,,,
08.366,2.312492598,,,
08.368,2.299595733,,,
08.370,2.248008275,,,
08.372,2.222214546,,,
08.374,2.183523952,,,
08.376,2.170627088,,,
08.378,2.170627088,,,
08.380,2.196420817,,,
08.382,2.26090514,,,
08.384,2.286698869,,,
08.386,2.312492598,,,
08.388,2.325389462,,,
08.390,2.312492598,,,
08.392,2.26090514,,,
08.394,2.286698869,,,
08.396,2.299595733,,,
08.398,2.286698869,,,
08.400,2.312492598,,,
08.402,2.351183192,,,
08.404,2.338286327,,,
08.406,2.351183192,,,
08.408,2.338286327,,,
08.410,2.325389462,,,
08.412,2.273802004,,,
08.414,2.248008275,,,
08.416,2.248008275,,,
08.418,2.286698869,,,
08.420,2.389873785,,,
08.422,2.376976921,,,
08.424,2.376976921,,,
08.426,2.376976921,,,
08.428,2.454358108,,,
08.430,2.428564379,,,
08.432,2.40277065,,,
08.434,2.364080056,,,
08.436,2.351183192,,,
08.438,2.338286327,,,
08.440,2.351183192,,,
08.442,2.389873785,,,
08.444,2.376976921,,,
08.446,2.376976921,,,
08.448,2.389873785,,,
08.450,2.441461244,,,
08.452,2.364080056,,,
08.454,2.338286327,,,
08.456,2.286698869,,,
08.458,2.196420817,,,
08.460,2.235111411,,,
08.462,2.248008275,,,
08.464,2.248008275,,,
08.466,2.248008275,,,
08.468,2.248008275,,,
08.470,2.222214546,,,
08.472,2.196420817,,,
08.474,2.157730223,,,
08.476,2.144833359,,,
08.478,2.106142765,,,
08.480,2.119039629,,,
08.482,2.183523952,,,
08.484,2.157730223,,,
08.486,2.196420817,,,
08.488,2.183523952,,,
08.490,2.209317681,,,
08.492,2.196420817,,,
08.494,2.144833359,,,
08.496,2.119039629,,,
08.498,2.106142765,,,
08.500,2.144833359,,,
08.502,2.157730223,,,
08.504,2.183523952,,,
08.506,2.183523952,,,
08.508,2.183523952,,,
08.510,2.144833359,,,
08.512,2.0932459,,,
08.514,2.106142765,,,
08.516,2.119039629,,,
08.518,2.080349036,,,
08.520,2.119039629,,,
08.522,2.170627088,,,
08.524,2.170627088,,,
08.526,2.119039629,,,
08.528,2.157730223,,,
08.530,2.170627088,,,
08.532,2.131936494,,,
08.534,2.0932459,,,
08.536,2.0932459,,,
08.538,2.041658442,,,
08.540,2.119039629,,,
08.542,2.131936494,,,
08.544,2.119039629,,,
08.546,2.067452171,,,
08.548,2.144833359,,,
08.550,2.080349036,,,
08.552,2.041658442,,,
08.554,2.002967848,,,
08.556,2.041658442,,,
08.558,1.95138039,,,
08.560,1.977174119,,,
08.562,2.0932459,,,
08.564,2.222214546,,,
08.566,2.338286327,,,
08.568,2.480151837,,,
08.570,2.583326754,,,
08.572,2.634914212,,,
08.574,2.763882858,,,
08.576,2.944438961,,,
08.578,3.176582524,,,
08.580,3.460313544,,,
08.582,3.756941429,,,
08.584,3.795632022,,,
08.586,3.769838293,,,
08.588,3.666663377,,,
08.590,3.447416679,,,
08.592,3.305551169,,,
08.594,3.099201336,,,
08.596,2.854160909,,,
08.598,2.609120483,,,
08.600,2.299595733,,,
08.602,2.106142765,,,
08.604,1.925586661,,,
08.606,1.886896067,,,
08.608,1.925586661,,,
08.610,1.912689796,,,
08.612,1.95138039,,,
08.614,2.028761578,,,
08.616,2.080349036,,,
08.618,2.119039629,,,
08.620,2.119039629,,,
08.622,2.170627088,,,
08.624,2.222214546,,,
08.626,2.209317681,,,
08.628,2.183523952,,,
08.630,2.157730223,,,
08.632,2.157730223,,,
08.634,2.157730223,,,
08.636,2.157730223,,,
08.638,2.170627088,,,
08.640,2.170627088,,,
08.642,2.248008275,,,
08.644,2.144833359,,,
08.646,2.196420817,,,
08.648,2.248008275,,,
08.650,2.170627088,,,
08.652,2.080349036,,,
08.654,2.131936494,,,
08.656,2.119039629,,,
08.658,2.157730223,,,
08.660,2.170627088,,,
08.662,2.248008275,,,
08.664,2.286698869,,,
08.666,2.273802004,,,
08.668,2.248008275,,,
08.670,2.209317681,,,
08.672,2.196420817,,,
08.674,2.209317681,,,
08.676,2.157730223,,,
08.678,2.170627088,,,
08.680,2.235111411,,,
08.682,2.222214546,,,
08.684,2.286698869,,,
08.686,2.351183192,,,
08.688,2.286698869,,,
08.690,2.338286327,,,
08.692,2.248008275,,,
08.694,2.286698869,,,
08.696,2.196420817,,,
08.698,2.183523952,,,
08.700,2.209317681,,,
08.702,2.248008275,,,
08.704,2.273802004,,,
08.706,2.299595733,,,
08.708,2.248008275,,,
08.710,2.248008275,,,
08.712,2.26090514,,,
08.714,2.312492598,,,
08.716,2.209317681,,,
08.718,2.26090514,,,
08.720,2.312492598,,,
08.722,2.364080056,,,
08.724,2.376976921,,,
08.726,2.376976921,,,
08.728,2.364080056,,,
08.730,2.338286327,,,
08.732,2.351183192,,,
08.734,2.338286327,,,
08.736,2.338286327,,,
08.738,2.338286327,,,
08.740,2.364080056,,,
08.742,2.415667514,,,
08.744,2.454358108,,,
08.746,2.467254973,,,
08.748,2.454358108,,,
08.750,2.415667514,,,
08.752,2.40277065,,,
08.754,2.389873785,,,
08.756,2.415667514,,,
08.758,2.454358108,,,
08.760,2.428564379,,,
08.762,2.505945566,,,
08.764,2.531739295,,,
08.766,2.583326754,,,
08.768,2.596223618,,,
08.770,2.570429889,,,
08.772,2.557533025,,,
08.774,2.531739295,,,
08.776,2.531739295,,,
08.778,2.54463616,,,
08.780,2.596223618,,,
08.782,2.622017347,,,
08.784,2.673604806,,,
08.786,2.789676587,,,
08.788,2.712295399,,,
08.790,2.647811076,,,
08.792,2.68650167,,,
08.794,2.68650167,,,
08.796,2.699398535,,,
08.798,2.699398535,,,
08.800,2.738089128,,,
08.802,2.763882858,,,
08.804,2.789676587,,,
08.806,2.841264045,,,
08.808,2.802573451,,,
08.810,2.712295399,,,
08.812,2.712295399,,,
08.814,2.750985993,,,
08.816,2.699398535,,,
08.818,2.750985993,,,
08.820,2.776779722,,,
08.822,2.738089128,,,
08.824,2.776779722,,,
08.826,2.750985993,,,
08.828,2.725192264,,,
08.830,2.68650167,,,
08.832,2.673604806,,,
08.834,2.634914212,,,
08.836,2.609120483,,,
08.838,2.609120483,,,
08.840,2.583326754,,,
08.842,2.699398535,,,
08.844,2.570429889,,,
08.846,2.557533025,,,
08.848,2.531739295,,,
08.850,2.441461244,,,
08.852,2.415667514,,,
08.854,2.428564379,,,
08.856,2.364080056,,,
08.858,2.351183192,,,
08.860,2.376976921,,,
08.862,2.351183192,,,
08.864,2.325389462,,,
08.866,2.351183192,,,
08.868,2.299595733,,,
08.870,2.196420817,,,
08.872,2.183523952,,,
08.874,2.183523952,,,
08.876,2.157730223,,,
08.878,2.209317681,,,
08.880,2.222214546,,,
08.882,2.286698869,,,
08.884,2.235111411,,,
08.886,2.222214546,,,
08.888,2.157730223,,,
08.890,2.106142765,,,
08.892,2.106142765,,,
08.894,2.157730223,,,
08.896,2.131936494,,,
08.898,2.131936494,,,
08.900,2.144833359,,,
08.902,2.170627088,,,
08.904,2.209317681,,,
08.906,2.196420817,,,
08.908,2.157730223,,,
08.910,2.131936494,,,
08.912,2.0932459,,,
08.914,2.080349036,,,
08.916,2.0932459,,,
08.918,2.144833359,,,
08.920,2.157730223,,,
08.922,2.183523952,,,
08.924,2.183523952,,,
08.926,2.196420817,,,
08.928,2.157730223,,,
08.930,2.144833359,,,
08.932,2.106142765,,,
08.934,2.0932459,,,
08.936,2.0932459,,,
08.938,2.131936494,,,
08.940,2.183523952,,,
08.942,2.170627088,,,
08.944,2.196420817,,,
08.946,2.183523952,,,
08.948,2.196420817,,,
08.950,2.183523952,,,
08.952,2.170627088,,,
08.954,2.131936494,,,
08.956,2.0932459,,,
08.958,2.131936494,,,
08.960,2.157730223,,,
08.962,2.106142765,,,
08.964,2.183523952,,,
08.966,2.170627088,,,
08.968,2.144833359,,,
08.970,2.131936494,,,
08.972,2.131936494,,,
08.974,2.131936494,,,
08.976,2.144833359,,,
08.978,2.131936494,,,
08.980,2.170627088,,,
08.982,2.209317681,,,
08.984,2.222214546,,,
08.986,2.209317681,,,
08.988,2.183523952,,,
08.990,2.170627088,,,
08.992,2.196420817,,,
08.994,2.144833359,,,
08.996,2.119039629,,,
08.998,2.131936494,,,
09.000,2.183523952,,,