Time (s),Signal (V),Peak Time (s) ,Sample #,Type
00.000,2.654505658,00.478,239,N
00.002,2.213348955,00.728,364,t
00.004,2.496949693,01.268,634,N
00.006,2.552094281,01.514,757,t
00.008,2.615116667,02.132,1066,N
00.010,2.772672632,02.372,1186,t
00.012,2.819939422,02.982,1491,N
00.014,3.016884379,03.236,1618,t
00.016,3.016884379,03.846,1923,N
00.018,2.772672632,04.098,2049,t
00.020,2.512705289,04.698,2349,N
00.022,2.315760332,04.958,2479,t
00.024,2.512705289,05.550,2775,N
00.026,2.583605474,05.808,2904,t
00.028,2.622994465,06.364,3182,N
00.030,2.772672632,06.614,3307,t
00.032,2.780550431,07.174,3587,N
00.034,3.016884379,07.432,3716,t
00.036,2.993250984,07.966,3983,N
00.038,2.804183826,08.212,4106,t
00.040,2.583605474,,,
00.042,2.378782719,,,
00.044,2.489071895,,,
00.046,2.544216482,,,
00.048,2.69389465,,,
00.050,2.756917036,,,
00.052,2.796306027,,,
00.054,3.040517774,,,
00.056,2.985373186,,,
00.058,2.709650246,,,
00.060,2.512705289,,,
00.062,2.268493543,,,
00.064,2.528460886,,,
00.066,2.536338684,,,
00.068,2.678139053,,,
00.070,2.780550431,,,
00.072,2.804183826,,,
00.074,3.032639976,,,
00.076,2.953861993,,,
00.078,2.812061624,,,
00.080,2.481194096,,,
00.082,2.244860148,,,
00.084,2.489071895,,,
00.086,2.457560701,,,
00.088,2.512705289,,,
00.090,2.749039238,,,
00.092,2.812061624,,,
00.094,3.048395572,,,
00.096,2.9223508,,,
00.098,2.764794834,,,
00.100,2.544216482,,,
00.102,2.260615744,,,
00.104,2.552094281,,,
00.106,2.473316298,,,
00.108,2.662383457,,,
00.110,2.630872263,,,
00.112,2.717528045,,,
00.114,3.040517774,,,
00.116,2.930228598,,,
00.118,2.725405843,,,
00.120,2.449682903,,,
00.122,2.323638131,,,
00.124,2.520583088,,,
00.126,2.544216482,,,
00.128,2.64662786,,,
00.130,2.756917036,,,
00.132,2.709650246,,,
00.134,3.032639976,,,
00.136,2.851450615,,,
00.138,2.709650246,,,
00.140,2.394538315,,,
00.142,2.363027122,,,
00.144,2.559972079,,,
00.146,2.489071895,,,
00.148,2.575727676,,,
00.150,2.678139053,,,
00.152,2.764794834,,,
00.154,3.024762177,,,
00.156,2.867206212,,,
00.158,2.69389465,,,
00.160,2.355149324,,,
00.162,2.363027122,,,
00.164,2.552094281,,,
00.166,2.504827491,,,
00.168,2.567849877,,,
00.170,2.701772448,,,
00.172,2.725405843,,,
00.174,3.05627337,,,
00.176,2.914473001,,,
00.178,2.709650246,,,
00.180,2.378782719,,,
00.182,2.363027122,,,
00.184,2.481194096,,,
00.186,2.520583088,,,
00.188,2.670261255,,,
00.190,2.725405843,,,
00.192,2.851450615,,,
00.194,2.993250984,,,
00.196,2.835695019,,,
00.198,2.725405843,,,
00.200,2.339393727,,,
00.202,2.323638131,,,
00.204,2.559972079,,,
00.206,2.552094281,,,
00.208,2.686016851,,,
00.210,2.749039238,,,
00.212,2.882961808,,,
00.214,3.032639976,,,
00.216,2.82781722,,,
00.218,2.69389465,,,
00.220,2.300004736,,,
00.222,2.496949693,,,
00.224,2.615116667,,,
00.226,2.638750062,,,
00.228,2.59936107,,,
00.230,2.756917036,,,
00.232,2.938106396,,,
00.234,2.953861993,,,
00.236,2.701772448,,,
00.238,2.622994465,,,
00.240,2.315760332,,,
00.242,2.496949693,,,
00.244,2.504827491,,,
00.246,2.528460886,,,
00.248,2.59936107,,,
00.250,2.772672632,,,
00.252,2.914473001,,,
00.254,2.985373186,,,
00.256,2.717528045,,,
00.258,2.64662786,,,
00.260,2.315760332,,,
00.262,2.433927307,,,
00.264,2.559972079,,,
00.266,2.59936107,,,
00.268,2.686016851,,,
00.270,2.709650246,,,
00.272,2.898717405,,,
00.274,2.961739791,,,
00.276,2.749039238,,,
00.278,2.567849877,,,
00.280,2.252737946,,,
00.282,2.449682903,,,
00.284,2.441805105,,,
00.286,2.575727676,,,
00.288,2.678139053,,,
00.290,2.733283641,,,
00.292,2.969617589,,,
00.294,2.9223508,,,
00.296,2.756917036,,,
00.298,2.583605474,,,
00.300,2.205471157,,,
00.302,2.481194096,,,
00.304,2.528460886,,,
00.306,2.552094281,,,
00.308,2.772672632,,,
00.310,2.749039238,,,
00.312,3.032639976,,,
00.314,3.048395572,,,
00.316,2.796306027,,,
00.318,2.559972079,,,
00.320,2.307882534,,,
00.322,2.583605474,,,
00.324,2.607238869,,,
00.326,2.678139053,,,
00.328,2.843572817,,,
00.330,2.843572817,,,
00.332,3.064151169,,,
00.334,3.016884379,,,
00.336,2.867206212,,,
00.338,2.591483272,,,
00.340,2.386660517,,,
00.342,2.654505658,,,
00.344,2.686016851,,,
00.346,2.756917036,,,
00.348,2.9223508,,,
00.350,2.930228598,,,
00.352,3.127173555,,,
00.354,3.127173555,,,
00.356,2.890839607,,,
00.358,2.622994465,,,
00.360,2.410293912,,,
00.362,2.64662786,,,
00.364,2.678139053,,,
00.366,2.764794834,,,
00.368,2.82781722,,,
00.370,2.867206212,,,
00.372,3.119295757,,,
00.374,3.032639976,,,
00.376,2.843572817,,,
00.378,2.591483272,,,
00.380,2.331515929,,,
00.382,2.59936107,,,
00.384,2.630872263,,,
00.386,2.741161439,,,
00.388,2.780550431,,,
00.390,2.796306027,,,
00.392,3.024762177,,,
00.394,3.001128783,,,
00.396,2.796306027,,,
00.398,2.457560701,,,
00.400,2.205471157,,,
00.402,2.512705289,,,
00.404,2.552094281,,,
00.406,2.678139053,,,
00.408,2.749039238,,,
00.410,2.764794834,,,
00.412,3.024762177,,,
00.414,2.87508401,,,
00.416,2.622994465,,,
00.418,2.512705289,,,
00.420,2.386660517,,,
00.422,2.552094281,,,
00.424,2.457560701,,,
00.426,2.552094281,,,
00.428,2.678139053,,,
00.430,2.678139053,,,
00.432,2.953861993,,,
00.434,2.835695019,,,
00.436,2.64662786,,,
00.438,2.378782719,,,
00.440,2.284249139,,,
00.442,2.473316298,,,
00.444,2.410293912,,,
00.446,2.536338684,,,
00.448,2.591483272,,,
00.450,2.552094281,,,
00.452,2.819939422,,,
00.454,2.630872263,,,
00.456,2.457560701,,,
00.458,2.071548586,,,
00.460,2.18971556,,,
00.462,2.363027122,,,
00.464,2.386660517,,,
00.466,2.64662786,,,
00.468,2.985373186,,,
00.470,3.142929151,,,
00.472,3.584085855,,,
00.474,3.718008426,,,
00.476,3.812542005,,,
00.478,3.639230443,,,
00.480,3.907075584,,,
00.482,4.033120357,,,
00.484,3.970097971,,,
00.486,3.977975769,,,
00.488,4.056753752,,,
00.490,3.970097971,,,
00.492,3.938586777,,,
00.494,3.631352645,,,
00.496,3.253218327,,,
00.498,2.796306027,,,
00.500,2.733283641,,,
00.502,2.622994465,,,
00.504,2.449682903,,,
00.506,2.630872263,,,
00.508,2.607238869,,,
00.510,2.686016851,,,
00.512,2.843572817,,,
00.514,2.512705289,,,
00.516,2.481194096,,,
00.518,2.024281796,,,
00.520,2.14244877,,,
00.522,2.229104551,,,
00.524,2.307882534,,,
00.526,2.410293912,,,
00.528,2.520583088,,,
00.530,2.686016851,,,
00.532,2.859328414,,,
00.534,2.575727676,,,
00.536,2.512705289,,,
00.538,2.103059779,,,
00.540,2.300004736,,,
00.542,2.426049508,,,
00.544,2.426049508,,,
00.546,2.583605474,,,
00.548,2.59936107,,,
00.550,2.749039238,,,
00.552,2.835695019,,,
00.554,2.654505658,,,
00.556,2.481194096,,,
00.558,2.173959963,,,
00.560,2.37090492,,,
00.562,2.449682903,,,
00.564,2.489071895,,,
00.566,2.583605474,,,
00.568,2.607238869,,,
00.570,2.764794834,,,
00.572,2.835695019,,,
00.574,2.670261255,,,
00.576,2.481194096,,,
00.578,2.134570972,,,
00.580,2.426049508,,,
00.582,2.504827491,,,
00.584,2.528460886,,,
00.586,2.662383457,,,
00.588,2.64662786,,,
00.590,2.898717405,,,
00.592,2.851450615,,,
00.594,2.64662786,,,
00.596,2.433927307,,,
00.598,2.150326569,,,
00.600,2.426049508,,,
00.602,2.504827491,,,
00.604,2.4654385,,,
00.606,2.654505658,,,
00.608,2.64662786,,,
00.610,2.890839607,,,
00.612,2.930228598,,,
00.614,2.741161439,,,
00.616,2.4654385,,,
00.618,2.118815375,,,
00.620,2.512705289,,,
00.622,2.607238869,,,
00.624,2.520583088,,,
00.626,2.780550431,,,
00.628,2.756917036,,,
00.630,2.914473001,,,
00.632,2.867206212,,,
00.634,2.717528045,,,
00.636,2.496949693,,,
00.638,2.18971556,,,
00.640,2.489071895,,,
00.642,2.520583088,,,
00.644,2.536338684,,,
00.646,2.686016851,,,
00.648,2.772672632,,,
00.650,2.945984195,,,
00.652,2.859328414,,,
00.654,2.725405843,,,
00.656,2.504827491,,,
00.658,2.284249139,,,
00.660,2.575727676,,,
00.662,2.575727676,,,
00.664,2.615116667,,,
00.666,2.812061624,,,
00.668,2.859328414,,,
00.670,3.095662362,,,
00.672,3.032639976,,,
00.674,2.780550431,,,
00.676,2.607238869,,,
00.678,2.363027122,,,
00.680,2.638750062,,,
00.682,2.615116667,,,
00.684,2.764794834,,,
00.686,2.9223508,,,
00.688,2.890839607,,,
00.690,3.142929151,,,
00.692,3.048395572,,,
00.694,2.906595203,,,
00.696,2.725405843,,,
00.698,2.496949693,,,
00.700,2.756917036,,,
00.702,2.749039238,,,
00.704,2.87508401,,,
00.706,2.961739791,,,
00.708,3.001128783,,,
00.710,3.33199631,,,
00.712,3.119295757,,,
00.714,3.087784564,,,
00.716,2.638750062,,,
00.718,2.607238869,,,
00.720,2.898717405,,,
00.722,2.851450615,,,
00.724,2.914473001,,,
00.726,3.032639976,,,
00.728,3.048395572,,,
00.730,3.3792631,,,
00.732,3.276851722,,,
00.734,3.087784564,,,
00.736,2.654505658,,,
00.738,2.686016851,,,
00.740,2.819939422,,,
00.742,2.780550431,,,
00.744,2.890839607,,,
00.746,3.05627337,,,
00.748,3.009006581,,,
00.750,3.213829336,,,
00.752,3.048395572,,,
00.754,2.9223508,,,
00.756,2.567849877,,,
00.758,2.473316298,,,
00.760,2.591483272,,,
00.762,2.575727676,,,
00.764,2.615116667,,,
00.766,2.812061624,,,
00.768,2.867206212,,,
00.770,2.977495388,,,
00.772,2.804183826,,,
00.774,2.701772448,,,
00.776,2.307882534,,,
00.778,2.363027122,,,
00.780,2.473316298,,,
00.782,2.481194096,,,
00.784,2.473316298,,,
00.786,2.622994465,,,
00.788,2.701772448,,,
00.790,2.835695019,,,
00.792,2.670261255,,,
00.794,2.536338684,,,
00.796,2.173959963,,,
00.798,2.331515929,,,
00.800,2.323638131,,,
00.802,2.347271526,,,
00.804,2.441805105,,,
00.806,2.670261255,,,
00.808,2.717528045,,,
00.810,2.717528045,,,
00.812,2.504827491,,,
00.814,2.457560701,,,
00.816,2.024281796,,,
00.818,2.244860148,,,
00.820,2.252737946,,,
00.822,2.284249139,,,
00.824,2.323638131,,,
00.826,2.449682903,,,
00.828,2.638750062,,,
00.830,2.709650246,,,
00.832,2.520583088,,,
00.834,2.378782719,,,
00.836,1.945503813,,,
00.838,2.126693174,,,
00.840,2.284249139,,,
00.842,2.260615744,,,
00.844,2.37090492,,,
00.846,2.355149324,,,
00.848,2.591483272,,,
00.850,2.662383457,,,
00.852,2.520583088,,,
00.854,2.378782719,,,
00.856,2.000648401,,,
00.858,2.181837762,,,
00.860,2.23698235,,,
00.862,2.300004736,,,
00.864,2.378782719,,,
00.866,2.489071895,,,
00.868,2.607238869,,,
00.870,2.567849877,,,
00.872,2.339393727,,,
00.874,2.14244877,,,
00.876,1.937626015,,,
00.878,2.126693174,,,
00.880,2.213348955,,,
00.882,2.244860148,,,
00.884,2.402416113,,,
00.886,2.449682903,,,
00.888,2.607238869,,,
00.890,2.59936107,,,
00.892,2.394538315,,,
00.894,2.260615744,,,
00.896,1.91399262,,,
00.898,2.150326569,,,
00.900,2.221226753,,,
00.902,2.300004736,,,
00.904,2.457560701,,,
00.906,2.457560701,,,
00.908,2.741161439,,,
00.910,2.607238869,,,
00.912,2.410293912,,,
00.914,2.244860148,,,
00.916,2.040037393,,,
00.918,2.23698235,,,
00.920,2.268493543,,,
00.922,2.355149324,,,
00.924,2.496949693,,,
00.926,2.528460886,,,
00.928,2.701772448,,,
00.930,2.662383457,,,
00.932,2.489071895,,,
00.934,2.18971556,,,
00.936,1.969137208,,,
00.938,2.292126938,,,
00.940,2.284249139,,,
00.942,2.300004736,,,
00.944,2.473316298,,,
00.946,2.607238869,,,
00.948,2.717528045,,,
00.950,2.59936107,,,
00.952,2.473316298,,,
00.954,2.229104551,,,
00.956,2.016403998,,,
00.958,2.284249139,,,
00.960,2.300004736,,,
00.962,2.37090492,,,
00.964,2.473316298,,,
00.966,2.473316298,,,
00.968,2.780550431,,,
00.970,2.686016851,,,
00.972,2.512705289,,,
00.974,2.268493543,,,
00.976,2.032159594,,,
00.978,2.221226753,,,
00.980,2.300004736,,,
00.982,2.489071895,,,
00.984,2.496949693,,,
00.986,2.607238869,,,
00.988,2.82781722,,,
00.990,2.701772448,,,
00.992,2.481194096,,,
00.994,2.229104551,,,
00.996,2.103059779,,,
00.998,2.292126938,,,
01.000,2.260615744,,,
01.002,2.449682903,,,
01.004,2.559972079,,,
01.006,2.489071895,,,
01.008,2.788428229,,,
01.010,2.678139053,,,
01.012,2.544216482,,,
01.014,2.205471157,,,
01.016,2.103059779,,,
01.018,2.323638131,,,
01.020,2.284249139,,,
01.022,2.441805105,,,
01.024,2.544216482,,,
01.026,2.544216482,,,
01.028,2.812061624,,,
01.030,2.662383457,,,
01.032,2.512705289,,,
01.034,2.229104551,,,
01.036,2.213348955,,,
01.038,2.363027122,,,
01.040,2.331515929,,,
01.042,2.402416113,,,
01.044,2.559972079,,,
01.046,2.638750062,,,
01.048,2.859328414,,,
01.050,2.662383457,,,
01.052,2.559972079,,,
01.054,2.181837762,,,
01.056,2.173959963,,,
01.058,2.37090492,,,
01.060,2.394538315,,,
01.062,2.426049508,,,
01.064,2.583605474,,,
01.066,2.654505658,,,
01.068,2.741161439,,,
01.070,2.725405843,,,
01.072,2.528460886,,,
01.074,2.244860148,,,
01.076,2.23698235,,,
01.078,2.315760332,,,
01.080,2.410293912,,,
01.082,2.489071895,,,
01.084,2.512705289,,,
01.086,2.583605474,,,
01.088,2.741161439,,,
01.090,2.638750062,,,
01.092,2.520583088,,,
01.094,2.118815375,,,
01.096,2.23698235,,,
01.098,2.355149324,,,
01.100,2.394538315,,,
01.102,2.481194096,,,
01.104,2.607238869,,,
01.106,2.654505658,,,
01.108,2.772672632,,,
01.110,2.630872263,,,
01.112,2.512705289,,,
01.114,2.095181981,,,
01.116,2.260615744,,,
01.118,2.355149324,,,
01.120,2.402416113,,,
01.122,2.512705289,,,
01.124,2.607238869,,,
01.126,2.812061624,,,
01.128,2.819939422,,,
01.130,2.701772448,,,
01.132,2.544216482,,,
01.134,2.126693174,,,
01.136,2.347271526,,,
01.138,2.4654385,,,
01.140,2.481194096,,,
01.142,2.615116667,,,
01.144,2.69389465,,,
01.146,2.804183826,,,
01.148,2.812061624,,,
01.150,2.630872263,,,
01.152,2.394538315,,,
01.154,2.087304182,,,
01.156,2.331515929,,,
01.158,2.363027122,,,
01.160,2.394538315,,,
01.162,2.583605474,,,
01.164,2.59936107,,,
01.166,2.749039238,,,
01.168,2.725405843,,,
01.170,2.481194096,,,
01.172,2.300004736,,,
01.174,1.992770603,,,
01.176,2.197593358,,,
01.178,2.252737946,,,
01.180,2.276371341,,,
01.182,2.37090492,,,
01.184,2.41817171,,,
01.186,2.630872263,,,
01.188,2.59936107,,,
01.190,2.402416113,,,
01.192,2.18971556,,,
01.194,1.890359225,,,
01.196,2.110937577,,,
01.198,2.150326569,,,
01.200,2.221226753,,,
01.202,2.363027122,,,
01.204,2.339393727,,,
01.206,2.638750062,,,
01.208,2.607238869,,,
01.210,2.402416113,,,
01.212,2.221226753,,,
01.214,1.937626015,,,
01.216,2.229104551,,,
01.218,2.252737946,,,
01.220,2.268493543,,,
01.222,2.402416113,,,
01.224,2.449682903,,,
01.226,2.686016851,,,
01.228,2.64662786,,,
01.230,2.394538315,,,
01.232,2.118815375,,,
01.234,1.858848032,,,
01.236,2.244860148,,,
01.238,2.118815375,,,
01.240,2.118815375,,,
01.242,2.23698235,,,
01.244,2.307882534,,,
01.246,2.473316298,,,
01.248,2.520583088,,,
01.250,2.300004736,,,
01.252,2.063670788,,,
01.254,2.000648401,,,
01.256,2.410293912,,,
01.258,2.536338684,,,
01.260,2.796306027,,,
01.262,3.205951538,,,
01.264,3.513185671,,,
01.266,3.875564391,,,
01.268,3.946464576,,,
01.270,3.970097971,,,
01.272,3.60771925,,,
01.274,3.347751907,,,
01.276,3.623474846,,,
01.278,3.497430074,,,
01.280,3.363507503,,,
01.282,3.355629705,,,
01.284,3.268973924,,,
01.286,3.28472952,,,
01.288,2.953861993,,,
01.290,2.583605474,,,
01.292,2.166082165,,,
01.294,1.929748217,,,
01.296,2.103059779,,,
01.298,2.016403998,,,
01.300,2.158204367,,,
01.302,2.18971556,,,
01.304,2.205471157,,,
01.306,2.323638131,,,
01.308,2.252737946,,,
01.310,2.095181981,,,
01.312,1.827336839,,,
01.314,1.827336839,,,
01.316,2.047915191,,,
01.318,2.000648401,,,
01.320,2.071548586,,,
01.322,2.221226753,,,
01.324,2.260615744,,,
01.326,2.489071895,,,
01.328,2.363027122,,,
01.330,2.23698235,,,
01.332,1.945503813,,,
01.334,1.898237024,,,
01.336,2.071548586,,,
01.338,2.14244877,,,
01.340,2.197593358,,,
01.342,2.300004736,,,
01.344,2.347271526,,,
01.346,2.544216482,,,
01.348,2.300004736,,,
01.350,2.276371341,,,
01.352,1.91399262,,,
01.354,1.929748217,,,
01.356,2.024281796,,,
01.358,2.110937577,,,
01.360,2.166082165,,,
01.362,2.331515929,,,
01.364,2.449682903,,,
01.366,2.591483272,,,
01.368,2.339393727,,,
01.370,2.197593358,,,
01.372,1.921870419,,,
01.374,2.055792989,,,
01.376,2.103059779,,,
01.378,2.134570972,,,
01.380,2.181837762,,,
01.382,2.300004736,,,
01.384,2.433927307,,,
01.386,2.544216482,,,
01.388,2.410293912,,,
01.390,2.307882534,,,
01.392,1.835214638,,,
01.394,2.000648401,,,
01.396,2.095181981,,,
01.398,2.032159594,,,
01.400,2.118815375,,,
01.402,2.363027122,,,
01.404,2.489071895,,,
01.406,2.567849877,,,
01.408,2.363027122,,,
01.410,2.23698235,,,
01.412,1.803703444,,,
01.414,1.984892805,,,
01.416,1.984892805,,,
01.418,2.166082165,,,
01.420,2.268493543,,,
01.422,2.363027122,,,
01.424,2.512705289,,,
01.426,2.536338684,,,
01.428,2.323638131,,,
01.430,2.229104551,,,
01.432,1.827336839,,,
01.434,2.071548586,,,
01.436,2.126693174,,,
01.438,2.166082165,,,
01.440,2.221226753,,,
01.442,2.355149324,,,
01.444,2.567849877,,,
01.446,2.615116667,,,
01.448,2.37090492,,,
01.450,2.126693174,,,
01.452,1.835214638,,,
01.454,2.087304182,,,
01.456,2.205471157,,,
01.458,2.103059779,,,
01.460,2.386660517,,,
01.462,2.457560701,,,
01.464,2.59936107,,,
01.466,2.64662786,,,
01.468,2.339393727,,,
01.470,2.244860148,,,
01.472,2.016403998,,,
01.474,2.229104551,,,
01.476,2.205471157,,,
01.478,2.331515929,,,
01.480,2.441805105,,,
01.482,2.489071895,,,
01.484,2.733283641,,,
01.486,2.709650246,,,
01.488,2.496949693,,,
01.490,2.331515929,,,
01.492,2.055792989,,,
01.494,2.315760332,,,
01.496,2.331515929,,,
01.498,2.441805105,,,
01.500,2.504827491,,,
01.502,2.544216482,,,
01.504,2.843572817,,,
01.506,2.780550431,,,
01.508,2.59936107,,,
01.510,2.386660517,,,
01.512,2.14244877,,,
01.514,2.37090492,,,
01.516,2.37090492,,,
01.518,2.426049508,,,
01.520,2.544216482,,,
01.522,2.512705289,,,
01.524,2.82781722,,,
01.526,2.788428229,,,
01.528,2.481194096,,,
01.530,2.260615744,,,
01.532,2.118815375,,,
01.534,2.331515929,,,
01.536,2.252737946,,,
01.538,2.268493543,,,
01.540,2.347271526,,,
01.542,2.504827491,,,
01.544,2.725405843,,,
01.546,2.64662786,,,
01.548,2.37090492,,,
01.550,2.047915191,,,
01.552,1.787947848,,,
01.554,2.032159594,,,
01.556,2.087304182,,,
01.558,2.166082165,,,
01.560,2.284249139,,,
01.562,2.402416113,,,
01.564,2.544216482,,,
01.566,2.410293912,,,
01.568,2.18971556,,,
01.570,1.91399262,,,
01.572,1.748558856,,,
01.574,2.0085262,,,
01.576,1.984892805,,,
01.578,2.134570972,,,
01.580,2.181837762,,,
01.582,2.126693174,,,
01.584,2.4654385,,,
01.586,2.292126938,,,
01.588,2.134570972,,,
01.590,1.803703444,,,
01.592,1.73280326,,,
01.594,1.906114822,,,
01.596,1.890359225,,,
01.598,1.96125941,,,
01.600,2.150326569,,,
01.602,2.126693174,,,
01.604,2.339393727,,,
01.606,2.221226753,,,
01.608,2.110937577,,,
01.610,1.78007005,,,
01.612,1.772192251,,,
01.614,1.96125941,,,
01.616,1.91399262,,,
01.618,1.921870419,,,
01.620,2.150326569,,,
01.622,2.229104551,,,
01.624,2.378782719,,,
01.626,2.173959963,,,
01.628,2.071548586,,,
01.630,1.740681058,,,
01.632,1.819459041,,,
01.634,1.929748217,,,
01.636,1.858848032,,,
01.638,1.953381612,,,
01.640,2.103059779,,,
01.642,2.229104551,,,
01.644,2.386660517,,,
01.646,2.284249139,,,
01.648,2.095181981,,,
01.650,1.73280326,,,
01.652,1.756436655,,,
01.654,1.906114822,,,
01.656,2.000648401,,,
01.658,2.040037393,,,
01.660,2.118815375,,,
01.662,2.181837762,,,
01.664,2.37090492,,,
01.666,2.197593358,,,
01.668,2.150326569,,,
01.670,1.73280326,,,
01.672,1.803703444,,,
01.674,1.906114822,,,
01.676,1.984892805,,,
01.678,1.953381612,,,
01.680,2.079426384,,,
01.682,2.244860148,,,
01.684,2.244860148,,,
01.686,2.158204367,,,
01.688,2.071548586,,,
01.690,1.717047663,,,
01.692,1.843092436,,,
01.694,1.945503813,,,
01.696,1.953381612,,,
01.698,2.047915191,,,
01.700,2.158204367,,,
01.702,2.244860148,,,
01.704,2.355149324,,,
01.706,2.14244877,,,
01.708,2.024281796,,,
01.710,1.630391882,,,
01.712,1.811581243,,,
01.714,1.882481427,,,
01.716,1.898237024,,,
01.718,2.0085262,,,
01.720,2.118815375,,,
01.722,2.355149324,,,
01.724,2.347271526,,,
01.726,2.134570972,,,
01.728,1.937626015,,,
01.730,1.567369496,,,
01.732,1.866725831,,,
01.734,1.929748217,,,
01.736,1.977015007,,,
01.738,2.103059779,,,
01.740,2.103059779,,,
01.742,2.307882534,,,
01.744,2.300004736,,,
01.746,2.134570972,,,
01.748,1.882481427,,,
01.750,1.543736101,,,
01.752,1.811581243,,,
01.754,1.843092436,,,
01.756,1.91399262,,,
01.758,2.087304182,,,
01.760,2.134570972,,,
01.762,2.363027122,,,
01.764,2.339393727,,,
01.766,2.087304182,,,
01.768,1.858848032,,,
01.770,1.583125093,,,
01.772,1.874603629,,,
01.774,1.835214638,,,
01.776,1.921870419,,,
01.778,2.110937577,,,
01.780,2.087304182,,,
01.782,2.300004736,,,
01.784,2.315760332,,,
01.786,2.079426384,,,
01.788,1.850970234,,,
01.790,1.567369496,,,
01.792,1.827336839,,,
01.794,1.874603629,,,
01.796,1.921870419,,,
01.798,2.047915191,,,
01.800,2.103059779,,,
01.802,2.331515929,,,
01.804,2.307882534,,,
01.806,2.047915191,,,
01.808,1.772192251,,,
01.810,1.5516139,,,
01.812,1.819459041,,,
01.814,1.858848032,,,
01.816,1.858848032,,,
01.818,1.953381612,,,
01.820,2.095181981,,,
01.822,2.260615744,,,
01.824,2.260615744,,,
01.826,2.047915191,,,
01.828,1.73280326,,,
01.830,1.559491698,,,
01.832,1.827336839,,,
01.834,1.740681058,,,
01.836,1.921870419,,,
01.838,2.024281796,,,
01.840,2.016403998,,,
01.842,2.323638131,,,
01.844,2.205471157,,,
01.846,2.103059779,,,
01.848,1.717047663,,,
01.850,1.472835917,,,
01.852,1.73280326,,,
01.854,1.73280326,,,
01.856,1.874603629,,,
01.858,1.992770603,,,
01.860,2.024281796,,,
01.862,2.292126938,,,
01.864,2.181837762,,,
01.866,1.977015007,,,
01.868,1.701292067,,,
01.870,1.5516139,,,
01.872,1.78007005,,,
01.874,1.772192251,,,
01.876,1.787947848,,,
01.878,1.977015007,,,
01.880,2.040037393,,,
01.882,2.244860148,,,
01.884,2.118815375,,,
01.886,2.024281796,,,
01.888,1.772192251,,,
01.890,1.512224908,,,
01.892,1.717047663,,,
01.894,1.717047663,,,
01.896,1.921870419,,,
01.898,1.992770603,,,
01.900,2.150326569,,,
01.902,2.268493543,,,
01.904,2.071548586,,,
01.906,1.929748217,,,
01.908,1.638269681,,,
01.910,1.567369496,,,
01.912,1.740681058,,,
01.914,1.756436655,,,
01.916,1.827336839,,,
01.918,1.969137208,,,
01.920,2.016403998,,,
01.922,2.268493543,,,
01.924,2.024281796,,,
01.926,1.874603629,,,
01.928,1.622514084,,,
01.930,1.717047663,,,
01.932,1.795825646,,,
01.934,1.803703444,,,
01.936,1.906114822,,,
01.938,2.063670788,,,
01.940,2.103059779,,,
01.942,2.244860148,,,
01.944,2.024281796,,,
01.946,1.977015007,,,
01.948,1.543736101,,,
01.950,1.638269681,,,
01.952,1.811581243,,,
01.954,1.787947848,,,
01.956,1.78007005,,,
01.958,2.055792989,,,
01.960,2.205471157,,,
01.962,2.292126938,,,
01.964,2.103059779,,,
01.966,1.953381612,,,
01.968,1.598880689,,,
01.970,1.764314453,,,
01.972,1.843092436,,,
01.974,1.921870419,,,
01.976,1.91399262,,,
01.978,2.040037393,,,
01.980,2.158204367,,,
01.982,2.339393727,,,
01.984,2.14244877,,,
01.986,2.063670788,,,
01.988,1.669780874,,,
01.990,1.795825646,,,
01.992,1.937626015,,,
01.994,1.921870419,,,
01.996,2.110937577,,,
01.998,2.260615744,,,
02.000,2.378782719,,,
02.002,2.481194096,,,
02.004,2.221226753,,,
02.006,2.103059779,,,
02.008,1.717047663,,,
02.010,1.945503813,,,
02.012,2.103059779,,,
02.014,2.047915191,,,
02.016,2.158204367,,,
02.018,2.134570972,,,
02.020,2.37090492,,,
02.022,2.339393727,,,
02.024,2.197593358,,,
02.026,1.921870419,,,
02.028,1.638269681,,,
02.030,1.906114822,,,
02.032,1.937626015,,,
02.034,2.0085262,,,
02.036,2.118815375,,,
02.038,2.166082165,,,
02.040,2.292126938,,,
02.042,2.260615744,,,
02.044,2.079426384,,,
02.046,1.858848032,,,
02.048,1.5516139,,,
02.050,1.756436655,,,
02.052,1.811581243,,,
02.054,1.850970234,,,
02.056,2.079426384,,,
02.058,2.032159594,,,
02.060,2.18971556,,,
02.062,2.197593358,,,
02.064,1.984892805,,,
02.066,1.772192251,,,
02.068,1.575247294,,,
02.070,1.764314453,,,
02.072,1.764314453,,,
02.074,1.827336839,,,
02.076,1.992770603,,,
02.078,2.032159594,,,
02.080,2.244860148,,,
02.082,2.260615744,,,
02.084,2.047915191,,,
02.086,1.717047663,,,
02.088,1.496469312,,,
02.090,1.724925462,,,
02.092,1.78007005,,,
02.094,1.835214638,,,
02.096,1.992770603,,,
02.098,1.984892805,,,
02.100,2.260615744,,,
02.102,2.040037393,,,
02.104,1.811581243,,,
02.106,1.559491698,,,
02.108,1.378302337,,,
02.110,1.669780874,,,
02.112,1.709169865,,,
02.114,1.772192251,,,
02.116,2.040037393,,,
02.118,2.181837762,,,
02.120,2.552094281,,,
02.122,2.756917036,,,
02.124,2.82781722,,,
02.126,2.749039238,,,
02.128,2.788428229,,,
02.130,3.229584933,,,
02.132,3.33199631,,,
02.134,3.686497233,,,
02.136,3.718008426,,,
02.138,3.718008426,,,
02.140,3.820419803,,,
02.142,3.599841452,,,
02.144,3.292607319,,,
02.146,2.898717405,,,
02.148,2.4654385,,,
02.150,2.544216482,,,
02.152,2.331515929,,,
02.154,2.229104551,,,
02.156,2.14244877,,,
02.158,2.095181981,,,
02.160,2.268493543,,,
02.162,2.173959963,,,
02.164,2.000648401,,,
02.166,1.622514084,,,
02.168,1.520102706,,,
02.170,1.701292067,,,
02.172,1.740681058,,,
02.174,1.795825646,,,
02.176,2.016403998,,,
02.178,2.071548586,,,
02.180,2.181837762,,,
02.182,1.977015007,,,
02.184,1.921870419,,,
02.186,1.669780874,,,
02.188,1.709169865,,,
02.190,1.843092436,,,
02.192,1.819459041,,,
02.194,1.890359225,,,
02.196,1.953381612,,,
02.198,1.984892805,,,
02.200,2.292126938,,,
02.202,2.181837762,,,
02.204,2.000648401,,,
02.206,1.630391882,,,
02.208,1.527980505,,,
02.210,1.803703444,,,
02.212,1.811581243,,,
02.214,1.850970234,,,
02.216,2.0085262,,,
02.218,2.063670788,,,
02.220,2.260615744,,,
02.222,2.087304182,,,
02.224,1.953381612,,,
02.226,1.598880689,,,
02.228,1.709169865,,,
02.230,1.73280326,,,
02.232,1.787947848,,,
02.234,1.906114822,,,
02.236,2.016403998,,,
02.238,2.040037393,,,
02.240,2.229104551,,,
02.242,2.126693174,,,
02.244,2.000648401,,,
02.246,1.717047663,,,
02.248,1.772192251,,,
02.250,1.803703444,,,
02.252,1.843092436,,,
02.254,1.906114822,,,
02.256,2.055792989,,,
02.258,2.213348955,,,
02.260,2.284249139,,,
02.262,2.150326569,,,
02.264,2.071548586,,,
02.266,1.654025277,,,
02.268,1.764314453,,,
02.270,1.850970234,,,
02.272,1.843092436,,,
02.274,1.992770603,,,
02.276,2.134570972,,,
02.278,2.252737946,,,
02.280,2.402416113,,,
02.282,2.213348955,,,
02.284,2.032159594,,,
02.286,1.717047663,,,
02.288,1.827336839,,,
02.290,1.91399262,,,
02.292,1.929748217,,,
02.294,2.079426384,,,
02.296,2.181837762,,,
02.298,2.323638131,,,
02.300,2.347271526,,,
02.302,2.173959963,,,
02.304,2.110937577,,,
02.306,1.638269681,,,
02.308,1.906114822,,,
02.310,2.000648401,,,
02.312,2.040037393,,,
02.314,2.23698235,,,
02.316,2.284249139,,,
02.318,2.457560701,,,
02.320,2.489071895,,,
02.322,2.268493543,,,
02.324,2.095181981,,,
02.326,1.787947848,,,
02.328,2.055792989,,,
02.330,2.095181981,,,
02.332,2.150326569,,,
02.334,2.355149324,,,
02.336,2.410293912,,,
02.338,2.622994465,,,
02.340,2.630872263,,,
02.342,2.449682903,,,
02.344,2.221226753,,,
02.346,1.906114822,,,
02.348,2.118815375,,,
02.350,2.23698235,,,
02.352,2.331515929,,,
02.354,2.536338684,,,
02.356,2.496949693,,,
02.358,2.686016851,,,
02.360,2.630872263,,,
02.362,2.552094281,,,
02.364,2.307882534,,,
02.366,2.032159594,,,
02.368,2.292126938,,,
02.370,2.378782719,,,
02.372,2.410293912,,,
02.374,2.512705289,,,
02.376,2.591483272,,,
02.378,2.749039238,,,
02.380,2.741161439,,,
02.382,2.552094281,,,
02.384,2.331515929,,,
02.386,2.079426384,,,
02.388,2.307882534,,,
02.390,2.252737946,,,
02.392,2.410293912,,,
02.394,2.504827491,,,
02.396,2.489071895,,,
02.398,2.725405843,,,
02.400,2.559972079,,,
02.402,2.504827491,,,
02.404,2.229104551,,,
02.406,2.0085262,,,
02.408,2.229104551,,,
02.410,2.18971556,,,
02.412,2.339393727,,,
02.414,2.355149324,,,
02.416,2.37090492,,,
02.418,2.638750062,,,
02.420,2.575727676,,,
02.422,2.41817171,,,
02.424,2.095181981,,,
02.426,1.835214638,,,
02.428,2.118815375,,,
02.430,2.095181981,,,
02.432,2.18971556,,,
02.434,2.315760332,,,
02.436,2.339393727,,,
02.438,2.559972079,,,
02.440,2.457560701,,,
02.442,2.252737946,,,
02.444,1.96125941,,,
02.446,1.819459041,,,
02.448,2.095181981,,,
02.450,1.96125941,,,
02.452,2.110937577,,,
02.454,2.268493543,,,
02.456,2.307882534,,,
02.458,2.559972079,,,
02.460,2.347271526,,,
02.462,2.284249139,,,
02.464,1.937626015,,,
02.466,1.850970234,,,
02.468,2.063670788,,,
02.470,2.103059779,,,
02.472,2.118815375,,,
02.474,2.268493543,,,
02.476,2.37090492,,,
02.478,2.615116667,,,
02.480,2.347271526,,,
02.482,2.197593358,,,
02.484,1.977015007,,,
02.486,1.953381612,,,
02.488,2.095181981,,,
02.490,2.032159594,,,
02.492,2.221226753,,,
02.494,2.300004736,,,
02.496,2.284249139,,,
02.498,2.536338684,,,
02.500,2.378782719,,,
02.502,2.300004736,,,
02.504,1.921870419,,,
02.506,1.929748217,,,
02.508,2.087304182,,,
02.510,2.173959963,,,
02.512,2.23698235,,,
02.514,2.307882534,,,
02.516,2.331515929,,,
02.518,2.504827491,,,
02.520,2.339393727,,,
02.522,2.315760332,,,
02.524,1.91399262,,,
02.526,2.000648401,,,
02.528,2.087304182,,,
02.530,2.118815375,,,
02.532,2.213348955,,,
02.534,2.355149324,,,
02.536,2.394538315,,,
02.538,2.536338684,,,
02.540,2.378782719,,,
02.542,2.339393727,,,
02.544,1.937626015,,,
02.546,2.032159594,,,
02.548,2.14244877,,,
02.550,2.118815375,,,
02.552,2.213348955,,,
02.554,2.339393727,,,
02.556,2.449682903,,,
02.558,2.559972079,,,
02.560,2.307882534,,,
02.562,2.355149324,,,
02.564,1.906114822,,,
02.566,2.087304182,,,
02.568,2.134570972,,,
02.570,2.173959963,,,
02.572,2.292126938,,,
02.574,2.41817171,,,
02.576,2.512705289,,,
02.578,2.552094281,,,
02.580,2.386660517,,,
02.582,2.292126938,,,
02.584,1.890359225,,,
02.586,2.103059779,,,
02.588,2.14244877,,,
02.590,2.158204367,,,
02.592,2.300004736,,,
02.594,2.363027122,,,
02.596,2.481194096,,,
02.598,2.575727676,,,
02.600,2.426049508,,,
02.602,2.213348955,,,
02.604,1.858848032,,,
02.606,2.095181981,,,
02.608,2.158204367,,,
02.610,2.18971556,,,
02.612,2.339393727,,,
02.614,2.41817171,,,
02.616,2.536338684,,,
02.618,2.59936107,,,
02.620,2.300004736,,,
02.622,2.134570972,,,
02.624,1.764314453,,,
02.626,2.126693174,,,
02.628,2.110937577,,,
02.630,2.158204367,,,
02.632,2.292126938,,,
02.634,2.300004736,,,
02.636,2.552094281,,,
02.638,2.457560701,,,
02.640,2.197593358,,,
02.642,2.087304182,,,
02.644,1.858848032,,,
02.646,2.040037393,,,
02.648,2.110937577,,,
02.650,2.205471157,,,
02.652,2.355149324,,,
02.654,2.276371341,,,
02.656,2.504827491,,,
02.658,2.433927307,,,
02.660,2.268493543,,,
02.662,2.063670788,,,
02.664,1.772192251,,,
02.666,2.024281796,,,
02.668,2.087304182,,,
02.670,2.126693174,,,
02.672,2.260615744,,,
02.674,2.339393727,,,
02.676,2.544216482,,,
02.678,2.496949693,,,
02.680,2.284249139,,,
02.682,1.984892805,,,
02.684,1.756436655,,,
02.686,2.032159594,,,
02.688,2.063670788,,,
02.690,2.095181981,,,
02.692,2.197593358,,,
02.694,2.260615744,,,
02.696,2.536338684,,,
02.698,2.449682903,,,
02.700,2.260615744,,,
02.702,2.016403998,,,
02.704,1.724925462,,,
02.706,2.032159594,,,
02.708,2.032159594,,,
02.710,2.126693174,,,
02.712,2.260615744,,,
02.714,2.300004736,,,
02.716,2.449682903,,,
02.718,2.433927307,,,
02.720,2.244860148,,,
02.722,1.984892805,,,
02.724,1.748558856,,,
02.726,2.063670788,,,
02.728,2.024281796,,,
02.730,2.110937577,,,
02.732,2.307882534,,,
02.734,2.284249139,,,
02.736,2.457560701,,,
02.738,2.426049508,,,
02.740,2.284249139,,,
02.742,1.937626015,,,
02.744,1.764314453,,,
02.746,1.992770603,,,
02.748,2.079426384,,,
02.750,2.110937577,,,
02.752,2.268493543,,,
02.754,2.268493543,,,
02.756,2.559972079,,,
02.758,2.386660517,,,
02.760,2.244860148,,,
02.762,1.977015007,,,
02.764,1.843092436,,,
02.766,2.055792989,,,
02.768,2.071548586,,,
02.770,2.118815375,,,
02.772,2.23698235,,,
02.774,2.268493543,,,
02.776,2.504827491,,,
02.778,2.363027122,,,
02.780,2.205471157,,,
02.782,1.906114822,,,
02.784,1.835214638,,,
02.786,2.103059779,,,
02.788,2.095181981,,,
02.790,2.134570972,,,
02.792,2.166082165,,,
02.794,2.229104551,,,
02.796,2.481194096,,,
02.798,2.331515929,,,
02.800,2.221226753,,,
02.802,1.937626015,,,
02.804,1.890359225,,,
02.806,2.047915191,,,
02.808,2.063670788,,,
02.810,2.103059779,,,
02.812,2.197593358,,,
02.814,2.363027122,,,
02.816,2.520583088,,,
02.818,2.355149324,,,
02.820,2.221226753,,,
02.822,1.866725831,,,
02.824,1.969137208,,,
02.826,2.126693174,,,
02.828,2.103059779,,,
02.830,2.23698235,,,
02.832,2.331515929,,,
02.834,2.41817171,,,
02.836,2.622994465,,,
02.838,2.457560701,,,
02.840,2.300004736,,,
02.842,1.977015007,,,
02.844,2.063670788,,,
02.846,2.18971556,,,
02.848,2.23698235,,,
02.850,2.331515929,,,
02.852,2.481194096,,,
02.854,2.638750062,,,
02.856,2.678139053,,,
02.858,2.481194096,,,
02.860,2.41817171,,,
02.862,1.969137208,,,
02.864,2.150326569,,,
02.866,2.205471157,,,
02.868,2.229104551,,,
02.870,2.426049508,,,
02.872,2.41817171,,,
02.874,2.583605474,,,
02.876,2.567849877,,,
02.878,2.394538315,,,
02.880,2.244860148,,,
02.882,1.866725831,,,
02.884,2.087304182,,,
02.886,2.166082165,,,
02.888,2.221226753,,,
02.890,2.221226753,,,
02.892,2.300004736,,,
02.894,2.481194096,,,
02.896,2.512705289,,,
02.898,2.323638131,,,
02.900,2.103059779,,,
02.902,1.787947848,,,
02.904,2.024281796,,,
02.906,2.047915191,,,
02.908,2.047915191,,,
02.910,2.18971556,,,
02.912,2.18971556,,,
02.914,2.449682903,,,
02.916,2.433927307,,,
02.918,2.221226753,,,
02.920,2.000648401,,,
02.922,1.787947848,,,
02.924,1.984892805,,,
02.926,2.063670788,,,
02.928,2.047915191,,,
02.930,2.134570972,,,
02.932,2.18971556,,,
02.934,2.4654385,,,
02.936,2.449682903,,,
02.938,2.213348955,,,
02.940,1.937626015,,,
02.942,1.661903075,,,
02.944,1.937626015,,,
02.946,1.984892805,,,
02.948,1.96125941,,,
02.950,2.063670788,,,
02.952,2.095181981,,,
02.954,2.276371341,,,
02.956,2.205471157,,,
02.958,1.992770603,,,
02.960,1.772192251,,,
02.962,1.441324724,,,
02.964,1.843092436,,,
02.966,1.977015007,,,
02.968,1.984892805,,,
02.970,2.37090492,,,
02.972,2.536338684,,,
02.974,2.953861993,,,
02.976,3.237462731,,,
02.978,3.300485117,,,
02.980,3.292607319,,,
02.982,3.229584933,,,
02.984,3.639230443,,,
02.986,3.647108241,,,
02.988,3.702252829,,,
02.990,3.828297602,,,
02.992,3.781030812,,,
02.994,3.773153014,,,
02.996,3.568330258,,,
02.998,3.245340529,,,
03.000,2.87508401,,,
03.002,2.37090492,,,
03.004,2.323638131,,,
03.006,2.158204367,,,
03.008,2.095181981,,,
03.010,2.126693174,,,
03.012,2.252737946,,,
03.014,2.489071895,,,
03.016,2.331515929,,,
03.018,2.118815375,,,
03.020,1.803703444,,,
03.022,1.575247294,,,
03.024,1.850970234,,,
03.026,1.811581243,,,
03.028,1.992770603,,,
03.030,2.14244877,,,
03.032,2.071548586,,,
03.034,2.378782719,,,
03.036,2.307882534,,,
03.038,2.150326569,,,
03.040,1.898237024,,,
03.042,1.748558856,,,
03.044,1.929748217,,,
03.046,1.921870419,,,
03.048,2.000648401,,,
03.050,2.118815375,,,
03.052,2.110937577,,,
03.054,2.457560701,,,
03.056,2.307882534,,,
03.058,2.110937577,,,
03.060,1.724925462,,,
03.062,1.866725831,,,
03.064,2.055792989,,,
03.066,1.937626015,,,
03.068,2.079426384,,,
03.070,2.229104551,,,
03.072,2.150326569,,,
03.074,2.37090492,,,
03.076,2.307882534,,,
03.078,2.166082165,,,
03.080,1.795825646,,,
03.082,1.795825646,,,
03.084,2.103059779,,,
03.086,2.126693174,,,
03.088,2.055792989,,,
03.090,2.197593358,,,
03.092,2.276371341,,,
03.094,2.449682903,,,
03.096,2.260615744,,,
03.098,2.158204367,,,
03.100,1.898237024,,,
03.102,1.795825646,,,
03.104,2.055792989,,,
03.106,1.969137208,,,
03.108,2.063670788,,,
03.110,2.221226753,,,
03.112,2.339393727,,,
03.114,2.473316298,,,
03.116,2.23698235,,,
03.118,2.158204367,,,
03.120,1.772192251,,,
03.122,1.96125941,,,
03.124,2.032159594,,,
03.126,2.000648401,,,
03.128,2.071548586,,,
03.130,2.284249139,,,
03.132,2.378782719,,,
03.134,2.512705289,,,
03.136,2.347271526,,,
03.138,2.213348955,,,
03.140,1.866725831,,,
03.142,1.992770603,,,
03.144,2.095181981,,,
03.146,2.110937577,,,
03.148,2.197593358,,,
03.150,2.386660517,,,
03.152,2.528460886,,,
03.154,2.575727676,,,
03.156,2.221226753,,,
03.158,2.181837762,,,
03.160,1.898237024,,,
03.162,2.032159594,,,
03.164,2.18971556,,,
03.166,2.18971556,,,
03.168,2.307882534,,,
03.170,2.394538315,,,
03.172,2.520583088,,,
03.174,2.59936107,,,
03.176,2.339393727,,,
03.178,2.276371341,,,
03.180,1.858848032,,,
03.182,2.087304182,,,
03.184,2.252737946,,,
03.186,2.323638131,,,
03.188,2.331515929,,,
03.190,2.489071895,,,
03.192,2.709650246,,,
03.194,2.725405843,,,
03.196,2.536338684,,,
03.198,2.378782719,,,
03.200,2.024281796,,,
03.202,2.300004736,,,
03.204,2.363027122,,,
03.206,2.4654385,,,
03.208,2.64662786,,,
03.210,2.575727676,,,
03.212,2.804183826,,,
03.214,2.843572817,,,
03.216,2.701772448,,,
03.218,2.41817171,,,
03.220,2.110937577,,,
03.222,2.41817171,,,
03.224,2.489071895,,,
03.226,2.520583088,,,
03.228,2.662383457,,,
03.230,2.701772448,,,
03.232,2.890839607,,,
03.234,2.87508401,,,
03.236,2.749039238,,,
03.238,2.481194096,,,
03.240,2.18971556,,,
03.242,2.402416113,,,
03.244,2.441805105,,,
03.246,2.41817171,,,
03.248,2.630872263,,,
03.250,2.64662786,,,
03.252,2.859328414,,,
03.254,2.82781722,,,
03.256,2.615116667,,,
03.258,2.339393727,,,
03.260,2.024281796,,,
03.262,2.244860148,,,
03.264,2.323638131,,,
03.266,2.386660517,,,
03.268,2.457560701,,,
03.270,2.4654385,,,
03.272,2.64662786,,,
03.274,2.607238869,,,
03.276,2.433927307,,,
03.278,2.134570972,,,
03.280,1.898237024,,,
03.282,2.14244877,,,
03.284,2.166082165,,,
03.286,2.181837762,,,
03.288,2.292126938,,,
03.290,2.410293912,,,
03.292,2.607238869,,,
03.294,2.520583088,,,
03.296,2.363027122,,,
03.298,2.087304182,,,
03.300,1.858848032,,,
03.302,2.134570972,,,
03.304,2.14244877,,,
03.306,2.126693174,,,
03.308,2.292126938,,,
03.310,2.386660517,,,
03.312,2.59936107,,,
03.314,2.536338684,,,
03.316,2.355149324,,,
03.318,2.024281796,,,
03.320,1.850970234,,,
03.322,2.047915191,,,
03.324,2.0085262,,,
03.326,2.181837762,,,
03.328,2.14244877,,,
03.330,2.378782719,,,
03.332,2.583605474,,,
03.334,2.489071895,,,
03.336,2.323638131,,,
03.338,2.016403998,,,
03.340,1.850970234,,,
03.342,2.071548586,,,
03.344,2.040037393,,,
03.346,2.134570972,,,
03.348,2.292126938,,,
03.350,2.37090492,,,
03.352,2.630872263,,,
03.354,2.449682903,,,
03.356,2.37090492,,,
03.358,2.079426384,,,
03.360,1.843092436,,,
03.362,2.055792989,,,
03.364,2.079426384,,,
03.366,2.221226753,,,
03.368,2.315760332,,,
03.370,2.307882534,,,
03.372,2.567849877,,,
03.374,2.410293912,,,
03.376,2.300004736,,,
03.378,1.945503813,,,
03.380,2.016403998,,,
03.382,2.110937577,,,
03.384,2.016403998,,,
03.386,2.221226753,,,
03.388,2.307882534,,,
03.390,2.347271526,,,
03.392,2.528460886,,,
03.394,2.394538315,,,
03.396,2.23698235,,,
03.398,1.953381612,,,
03.400,2.000648401,,,
03.402,2.110937577,,,
03.404,2.103059779,,,
03.406,2.181837762,,,
03.408,2.221226753,,,
03.410,2.433927307,,,
03.412,2.559972079,,,
03.414,2.402416113,,,
03.416,2.300004736,,,
03.418,1.906114822,,,
03.420,1.945503813,,,
03.422,1.906114822,,,
03.424,2.110937577,,,
03.426,2.213348955,,,
03.428,2.244860148,,,
03.430,2.41817171,,,
03.432,2.520583088,,,
03.434,2.315760332,,,
03.436,2.260615744,,,
03.438,1.890359225,,,
03.440,2.024281796,,,
03.442,2.110937577,,,
03.444,2.079426384,,,
03.446,2.173959963,,,
03.448,2.307882534,,,
03.450,2.481194096,,,
03.452,2.504827491,,,
03.454,2.213348955,,,
03.456,2.158204367,,,
03.458,1.795825646,,,
03.460,2.000648401,,,
03.462,2.055792989,,,
03.464,2.063670788,,,
03.466,2.181837762,,,
03.468,2.300004736,,,
03.470,2.457560701,,,
03.472,2.433927307,,,
03.474,2.23698235,,,
03.476,2.095181981,,,
03.478,1.787947848,,,
03.480,1.929748217,,,
03.482,2.063670788,,,
03.484,2.055792989,,,
03.486,2.205471157,,,
03.488,2.284249139,,,
03.490,2.504827491,,,
03.492,2.473316298,,,
03.494,2.300004736,,,
03.496,2.032159594,,,
03.498,1.73280326,,,
03.500,2.032159594,,,
03.502,2.016403998,,,
03.504,2.024281796,,,
03.506,2.166082165,,,
03.508,2.213348955,,,
03.510,2.504827491,,,
03.512,2.41817171,,,
03.514,2.268493543,,,
03.516,2.063670788,,,
03.518,1.803703444,,,
03.520,2.016403998,,,
03.522,2.016403998,,,
03.524,2.071548586,,,
03.526,2.229104551,,,
03.528,2.260615744,,,
03.530,2.441805105,,,
03.532,2.402416113,,,
03.534,2.150326569,,,
03.536,1.984892805,,,
03.538,1.73280326,,,
03.540,2.032159594,,,
03.542,2.079426384,,,
03.544,2.197593358,,,
03.546,2.181837762,,,
03.548,2.173959963,,,
03.550,2.449682903,,,
03.552,2.41817171,,,
03.554,2.205471157,,,
03.556,1.937626015,,,
03.558,1.787947848,,,
03.560,1.984892805,,,
03.562,1.984892805,,,
03.564,2.071548586,,,
03.566,2.166082165,,,
03.568,2.205471157,,,
03.570,2.496949693,,,
03.572,2.378782719,,,
03.574,2.23698235,,,
03.576,1.96125941,,,
03.578,1.811581243,,,
03.580,1.921870419,,,
03.582,1.945503813,,,
03.584,2.016403998,,,
03.586,2.166082165,,,
03.588,2.23698235,,,
03.590,2.433927307,,,
03.592,2.441805105,,,
03.594,2.292126938,,,
03.596,1.96125941,,,
03.598,1.724925462,,,
03.600,1.969137208,,,
03.602,1.953381612,,,
03.604,2.047915191,,,
03.606,2.166082165,,,
03.608,2.166082165,,,
03.610,2.41817171,,,
03.612,2.331515929,,,
03.614,2.150326569,,,
03.616,1.921870419,,,
03.618,1.764314453,,,
03.620,1.984892805,,,
03.622,2.024281796,,,
03.624,2.118815375,,,
03.626,2.244860148,,,
03.628,2.260615744,,,
03.630,2.441805105,,,
03.632,2.410293912,,,
03.634,2.229104551,,,
03.636,1.969137208,,,
03.638,1.748558856,,,
03.640,2.000648401,,,
03.642,1.992770603,,,
03.644,2.134570972,,,
03.646,2.252737946,,,
03.648,2.276371341,,,
03.650,2.449682903,,,
03.652,2.355149324,,,
03.654,2.181837762,,,
03.656,1.929748217,,,
03.658,1.898237024,,,
03.660,2.000648401,,,
03.662,2.047915191,,,
03.664,2.213348955,,,
03.666,2.292126938,,,
03.668,2.315760332,,,
03.670,2.615116667,,,
03.672,2.378782719,,,
03.674,2.323638131,,,
03.676,2.000648401,,,
03.678,1.992770603,,,
03.680,2.205471157,,,
03.682,2.221226753,,,
03.684,2.260615744,,,
03.686,2.433927307,,,
03.688,2.489071895,,,
03.690,2.654505658,,,
03.692,2.473316298,,,
03.694,2.426049508,,,
03.696,2.024281796,,,
03.698,2.032159594,,,
03.700,2.213348955,,,
03.702,2.284249139,,,
03.704,2.4654385,,,
03.706,2.544216482,,,
03.708,2.662383457,,,
03.710,2.796306027,,,
03.712,2.583605474,,,
03.714,2.552094281,,,
03.716,2.158204367,,,
03.718,2.292126938,,,
03.720,2.355149324,,,
03.722,2.394538315,,,
03.724,2.426049508,,,
03.726,2.559972079,,,
03.728,2.709650246,,,
03.730,2.812061624,,,
03.732,2.559972079,,,
03.734,2.473316298,,,
03.736,2.047915191,,,
03.738,2.244860148,,,
03.740,2.315760332,,,
03.742,2.315760332,,,
03.744,2.481194096,,,
03.746,2.552094281,,,
03.748,2.69389465,,,
03.750,2.709650246,,,
03.752,2.441805105,,,
03.754,2.378782719,,,
03.756,1.945503813,,,
03.758,2.14244877,,,
03.760,2.158204367,,,
03.762,2.213348955,,,
03.764,2.37090492,,,
03.766,2.496949693,,,
03.768,2.552094281,,,
03.770,2.615116667,,,
03.772,2.315760332,,,
03.774,2.260615744,,,
03.776,1.843092436,,,
03.778,2.040037393,,,
03.780,2.213348955,,,
03.782,2.197593358,,,
03.784,2.307882534,,,
03.786,2.323638131,,,
03.788,2.512705289,,,
03.790,2.489071895,,,
03.792,2.37090492,,,
03.794,2.158204367,,,
03.796,1.858848032,,,
03.798,2.14244877,,,
03.800,2.126693174,,,
03.802,2.14244877,,,
03.804,2.307882534,,,
03.806,2.402416113,,,
03.808,2.496949693,,,
03.810,2.441805105,,,
03.812,2.300004736,,,
03.814,2.032159594,,,
03.816,1.709169865,,,
03.818,1.953381612,,,
03.820,1.937626015,,,
03.822,1.969137208,,,
03.824,2.158204367,,,
03.826,2.252737946,,,
03.828,2.536338684,,,
03.830,2.559972079,,,
03.832,2.520583088,,,
03.834,2.520583088,,,
03.836,2.504827491,,,
03.838,3.032639976,,,
03.840,3.253218327,,,
03.842,3.528941267,,,
03.844,3.88344219,,,
03.846,4.080387146,,,
03.848,4.237943112,,,
03.850,4.182798524,,,
03.852,4.048875953,,,
03.854,3.623474846,,,
03.856,3.205951538,,,
03.858,3.28472952,,,
03.860,3.095662362,,,
03.862,3.032639976,,,
03.864,2.953861993,,,
03.866,2.662383457,,,
03.868,2.733283641,,,
03.870,2.575727676,,,
03.872,2.426049508,,,
03.874,2.095181981,,,
03.876,1.843092436,,,
03.878,1.992770603,,,
03.880,1.977015007,,,
03.882,2.016403998,,,
03.884,2.197593358,,,
03.886,2.087304182,,,
03.888,2.378782719,,,
03.890,2.363027122,,,
03.892,2.158204367,,,
03.894,1.96125941,,,
03.896,1.68553647,,,
03.898,2.000648401,,,
03.900,2.095181981,,,
03.902,2.166082165,,,
03.904,2.18971556,,,
03.906,2.315760332,,,
03.908,2.512705289,,,
03.910,2.402416113,,,
03.912,2.331515929,,,
03.914,1.937626015,,,
03.916,1.811581243,,,
03.918,2.063670788,,,
03.920,2.032159594,,,
03.922,2.095181981,,,
03.924,2.37090492,,,
03.926,2.339393727,,,
03.928,2.489071895,,,
03.930,2.433927307,,,
03.932,2.276371341,,,
03.934,1.969137208,,,
03.936,1.882481427,,,
03.938,2.063670788,,,
03.940,2.055792989,,,
03.942,2.14244877,,,
03.944,2.229104551,,,
03.946,2.292126938,,,
03.948,2.559972079,,,
03.950,2.402416113,,,
03.952,2.229104551,,,
03.954,1.898237024,,,
03.956,1.882481427,,,
03.958,2.063670788,,,
03.960,2.079426384,,,
03.962,2.173959963,,,
03.964,2.300004736,,,
03.966,2.331515929,,,
03.968,2.607238869,,,
03.970,2.41817171,,,
03.972,2.292126938,,,
03.974,1.937626015,,,
03.976,1.953381612,,,
03.978,2.079426384,,,
03.980,2.087304182,,,
03.982,2.229104551,,,
03.984,2.323638131,,,
03.986,2.323638131,,,
03.988,2.607238869,,,
03.990,2.386660517,,,
03.992,2.300004736,,,
03.994,1.937626015,,,
03.996,1.984892805,,,
03.998,2.118815375,,,
04.000,2.166082165,,,
04.002,2.23698235,,,
04.004,2.426049508,,,
04.006,2.591483272,,,
04.008,2.709650246,,,
04.010,2.441805105,,,
04.012,2.307882534,,,
04.014,1.945503813,,,
04.016,2.095181981,,,
04.018,2.173959963,,,
04.020,2.260615744,,,
04.022,2.37090492,,,
04.024,2.426049508,,,
04.026,2.552094281,,,
04.028,2.69389465,,,
04.030,2.496949693,,,
04.032,2.355149324,,,
04.034,2.000648401,,,
04.036,2.126693174,,,
04.038,2.23698235,,,
04.040,2.307882534,,,
04.042,2.363027122,,,
04.044,2.528460886,,,
04.046,2.638750062,,,
04.048,2.741161439,,,
04.050,2.567849877,,,
04.052,2.496949693,,,
04.054,2.134570972,,,
04.056,2.284249139,,,
04.058,2.410293912,,,
04.060,2.323638131,,,
04.062,2.536338684,,,
04.064,2.64662786,,,
04.066,2.859328414,,,
04.068,2.819939422,,,
04.070,2.654505658,,,
04.072,2.481194096,,,
04.074,2.126693174,,,
04.076,2.378782719,,,
04.078,2.457560701,,,
04.080,2.4654385,,,
04.082,2.630872263,,,
04.084,2.701772448,,,
04.086,2.890839607,,,
04.088,2.898717405,,,
04.090,2.701772448,,,
04.092,2.559972079,,,
04.094,2.221226753,,,
04.096,2.441805105,,,
04.098,2.504827491,,,
04.100,2.567849877,,,
04.102,2.701772448,,,
04.104,2.69389465,,,
04.106,2.851450615,,,
04.108,2.914473001,,,
04.110,2.733283641,,,
04.112,2.481194096,,,
04.114,2.18971556,,,
04.116,2.426049508,,,
04.118,2.394538315,,,
04.120,2.441805105,,,
04.122,2.622994465,,,
04.124,2.607238869,,,
04.126,2.835695019,,,
04.128,2.725405843,,,
04.130,2.559972079,,,
04.132,2.292126938,,,
04.134,1.953381612,,,
04.136,2.315760332,,,
04.138,2.307882534,,,
04.140,2.331515929,,,
04.142,2.512705289,,,
04.144,2.536338684,,,
04.146,2.686016851,,,
04.148,2.622994465,,,
04.150,2.347271526,,,
04.152,2.23698235,,,
04.154,1.969137208,,,
04.156,2.158204367,,,
04.158,2.166082165,,,
04.160,2.221226753,,,
04.162,2.260615744,,,
04.164,2.276371341,,,
04.166,2.512705289,,,
04.168,2.496949693,,,
04.170,2.331515929,,,
04.172,2.087304182,,,
04.174,1.874603629,,,
04.176,2.103059779,,,
04.178,2.158204367,,,
04.180,2.23698235,,,
04.182,2.355149324,,,
04.184,2.339393727,,,
04.186,2.607238869,,,
04.188,2.552094281,,,
04.190,2.331515929,,,
04.192,1.984892805,,,
04.194,1.906114822,,,
04.196,2.134570972,,,
04.198,2.14244877,,,
04.200,2.23698235,,,
04.202,2.363027122,,,
04.204,2.394538315,,,
04.206,2.64662786,,,
04.208,2.520583088,,,
04.210,2.300004736,,,
04.212,2.016403998,,,
04.214,1.874603629,,,
04.216,2.110937577,,,
04.218,2.197593358,,,
04.220,2.260615744,,,
04.222,2.386660517,,,
04.224,2.347271526,,,
04.226,2.59936107,,,
04.228,2.496949693,,,
04.230,2.355149324,,,
04.232,2.071548586,,,
04.234,2.024281796,,,
04.236,2.103059779,,,
04.238,2.134570972,,,
04.240,2.300004736,,,
04.242,2.363027122,,,
04.244,2.363027122,,,
04.246,2.64662786,,,
04.248,2.512705289,,,
04.250,2.315760332,,,
04.252,1.945503813,,,
04.254,2.016403998,,,
04.256,2.134570972,,,
04.258,2.197593358,,,
04.260,2.244860148,,,
04.262,2.394538315,,,
04.264,2.394538315,,,
04.266,2.678139053,,,
04.268,2.512705289,,,
04.270,2.347271526,,,
04.272,2.016403998,,,
04.274,2.158204367,,,
04.276,2.197593358,,,
04.278,2.166082165,,,
04.280,2.315760332,,,
04.282,2.41817171,,,
04.284,2.41817171,,,
04.286,2.622994465,,,
04.288,2.426049508,,,
04.290,2.394538315,,,
04.292,1.96125941,,,
04.294,2.0085262,,,
04.296,2.110937577,,,
04.298,2.18971556,,,
04.300,2.23698235,,,
04.302,2.347271526,,,
04.304,2.426049508,,,
04.306,2.512705289,,,
04.308,2.37090492,,,
04.310,2.41817171,,,
04.312,1.937626015,,,
04.314,2.071548586,,,
04.316,2.205471157,,,
04.318,2.197593358,,,
04.320,2.284249139,,,
04.322,2.41817171,,,
04.324,2.504827491,,,
04.326,2.615116667,,,
04.328,2.394538315,,,
04.330,2.300004736,,,
04.332,1.921870419,,,
04.334,2.095181981,,,
04.336,2.134570972,,,
04.338,2.221226753,,,
04.340,2.323638131,,,
04.342,2.323638131,,,
04.344,2.496949693,,,
04.346,2.583605474,,,
04.348,2.363027122,,,
04.350,2.23698235,,,
04.352,1.953381612,,,
04.354,2.118815375,,,
04.356,2.213348955,,,
04.358,2.268493543,,,
04.360,2.41817171,,,
04.362,2.441805105,,,
04.364,2.567849877,,,
04.366,2.496949693,,,
04.368,2.378782719,,,
04.370,2.260615744,,,
04.372,1.898237024,,,
04.374,2.103059779,,,
04.376,2.173959963,,,
04.378,2.197593358,,,
04.380,2.300004736,,,
04.382,2.386660517,,,
04.384,2.59936107,,,
04.386,2.559972079,,,
04.388,2.260615744,,,
04.390,2.166082165,,,
04.392,1.866725831,,,
04.394,2.158204367,,,
04.396,2.23698235,,,
04.398,2.213348955,,,
04.400,2.292126938,,,
04.402,2.363027122,,,
04.404,2.591483272,,,
04.406,2.559972079,,,
04.408,2.410293912,,,
04.410,2.14244877,,,
04.412,1.866725831,,,
04.414,2.087304182,,,
04.416,2.244860148,,,
04.418,2.197593358,,,
04.420,2.386660517,,,
04.422,2.355149324,,,
04.424,2.670261255,,,
04.426,2.615116667,,,
04.428,2.37090492,,,
04.430,2.14244877,,,
04.432,1.858848032,,,
04.434,2.14244877,,,
04.436,2.18971556,,,
04.438,2.23698235,,,
04.440,2.37090492,,,
04.442,2.410293912,,,
04.444,2.622994465,,,
04.446,2.607238869,,,
04.448,2.386660517,,,
04.450,2.087304182,,,
04.452,1.898237024,,,
04.454,2.205471157,,,
04.456,2.118815375,,,
04.458,2.23698235,,,
04.460,2.315760332,,,
04.462,2.386660517,,,
04.464,2.575727676,,,
04.466,2.489071895,,,
04.468,2.323638131,,,
04.470,2.024281796,,,
04.472,1.827336839,,,
04.474,2.087304182,,,
04.476,2.063670788,,,
04.478,2.229104551,,,
04.480,2.347271526,,,
04.482,2.363027122,,,
04.484,2.575727676,,,
04.486,2.504827491,,,
04.488,2.378782719,,,
04.490,2.14244877,,,
04.492,1.898237024,,,
04.494,2.166082165,,,
04.496,2.095181981,,,
04.498,2.229104551,,,
04.500,2.386660517,,,
04.502,2.347271526,,,
04.504,2.520583088,,,
04.506,2.607238869,,,
04.508,2.300004736,,,
04.510,2.134570972,,,
04.512,1.945503813,,,
04.514,2.150326569,,,
04.516,2.150326569,,,
04.518,2.205471157,,,
04.520,2.331515929,,,
04.522,2.37090492,,,
04.524,2.622994465,,,
04.526,2.489071895,,,
04.528,2.378782719,,,
04.530,2.024281796,,,
04.532,1.984892805,,,
04.534,2.110937577,,,
04.536,2.221226753,,,
04.538,2.323638131,,,
04.540,2.41817171,,,
04.542,2.433927307,,,
04.544,2.670261255,,,
04.546,2.473316298,,,
04.548,2.473316298,,,
04.550,2.134570972,,,
04.552,2.118815375,,,
04.554,2.292126938,,,
04.556,2.355149324,,,
04.558,2.457560701,,,
04.560,2.575727676,,,
04.562,2.607238869,,,
04.564,2.812061624,,,
04.566,2.622994465,,,
04.568,2.496949693,,,
04.570,2.126693174,,,
04.572,2.197593358,,,
04.574,2.363027122,,,
04.576,2.339393727,,,
04.578,2.402416113,,,
04.580,2.441805105,,,
04.582,2.622994465,,,
04.584,2.749039238,,,
04.586,2.496949693,,,
04.588,2.457560701,,,
04.590,2.087304182,,,
04.592,2.150326569,,,
04.594,2.292126938,,,
04.596,2.339393727,,,
04.598,2.433927307,,,
04.600,2.489071895,,,
04.602,2.575727676,,,
04.604,2.69389465,,,
04.606,2.489071895,,,
04.608,2.363027122,,,
04.610,1.984892805,,,
04.612,2.134570972,,,
04.614,2.166082165,,,
04.616,2.252737946,,,
04.618,2.292126938,,,
04.620,2.433927307,,,
04.622,2.536338684,,,
04.624,2.559972079,,,
04.626,2.473316298,,,
04.628,2.355149324,,,
04.630,1.91399262,,,
04.632,2.126693174,,,
04.634,2.244860148,,,
04.636,2.18971556,,,
04.638,2.307882534,,,
04.640,2.426049508,,,
04.642,2.567849877,,,
04.644,2.59936107,,,
04.646,2.433927307,,,
04.648,2.229104551,,,
04.650,1.890359225,,,
04.652,2.126693174,,,
04.654,2.150326569,,,
04.656,2.197593358,,,
04.658,2.244860148,,,
04.660,2.268493543,,,
04.662,2.536338684,,,
04.664,2.552094281,,,
04.666,2.292126938,,,
04.668,2.047915191,,,
04.670,1.756436655,,,
04.672,1.953381612,,,
04.674,1.874603629,,,
04.676,1.953381612,,,
04.678,2.268493543,,,
04.680,2.347271526,,,
04.682,2.552094281,,,
04.684,2.69389465,,,
04.686,2.64662786,,,
04.688,2.709650246,,,
04.690,2.552094281,,,
04.692,3.087784564,,,
04.694,3.347751907,,,
04.696,3.631352645,,,
04.698,3.970097971,,,
04.700,4.104020541,,,
04.702,4.24582091,,,
04.704,4.135531734,,,
04.706,3.875564391,,,
04.708,3.552574662,,,
04.710,3.10354016,,,
04.712,3.158684748,,,
04.714,3.016884379,,,
04.716,2.87508401,,,
04.718,2.772672632,,,
04.720,2.622994465,,,
04.722,2.709650246,,,
04.724,2.575727676,,,
04.726,2.363027122,,,
04.728,2.040037393,,,
04.730,1.835214638,,,
04.732,2.063670788,,,
04.734,2.016403998,,,
04.736,2.087304182,,,
04.738,2.18971556,,,
04.740,2.260615744,,,
04.742,2.567849877,,,
04.744,2.410293912,,,
04.746,2.331515929,,,
04.748,2.103059779,,,
04.750,1.921870419,,,
04.752,2.181837762,,,
04.754,2.173959963,,,
04.756,2.260615744,,,
04.758,2.441805105,,,
04.760,2.410293912,,,
04.762,2.662383457,,,
04.764,2.59936107,,,
04.766,2.378782719,,,
04.768,2.063670788,,,
04.770,1.929748217,,,
04.772,2.205471157,,,
04.774,2.181837762,,,
04.776,2.213348955,,,
04.778,2.410293912,,,
04.780,2.473316298,,,
04.782,2.670261255,,,
04.784,2.583605474,,,
04.786,2.37090492,,,
04.788,2.118815375,,,
04.790,1.984892805,,,
04.792,2.244860148,,,
04.794,2.166082165,,,
04.796,2.268493543,,,
04.798,2.481194096,,,
04.800,2.4654385,,,
04.802,2.741161439,,,
04.804,2.678139053,,,
04.806,2.512705289,,,
04.808,2.150326569,,,
04.810,2.016403998,,,
04.812,2.307882534,,,
04.814,2.300004736,,,
04.816,2.347271526,,,
04.818,2.520583088,,,
04.820,2.552094281,,,
04.822,2.772672632,,,
04.824,2.607238869,,,
04.826,2.481194096,,,
04.828,2.173959963,,,
04.830,2.118815375,,,
04.832,2.355149324,,,
04.834,2.307882534,,,
04.836,2.37090492,,,
04.838,2.544216482,,,
04.840,2.559972079,,,
04.842,2.780550431,,,
04.844,2.630872263,,,
04.846,2.528460886,,,
04.848,2.197593358,,,
04.850,2.173959963,,,
04.852,2.394538315,,,
04.854,2.355149324,,,
04.856,2.426049508,,,
04.858,2.512705289,,,
04.860,2.622994465,,,
04.862,2.82781722,,,
04.864,2.638750062,,,
04.866,2.552094281,,,
04.868,2.213348955,,,
04.870,2.213348955,,,
04.872,2.41817171,,,
04.874,2.433927307,,,
04.876,2.504827491,,,
04.878,2.812061624,,,
04.880,2.709650246,,,
04.882,2.914473001,,,
04.884,2.796306027,,,
04.886,2.59936107,,,
04.888,2.307882534,,,
04.890,2.315760332,,,
04.892,2.481194096,,,
04.894,2.528460886,,,
04.896,2.654505658,,,
04.898,2.804183826,,,
04.900,2.930228598,,,
04.902,3.095662362,,,
04.904,2.82781722,,,
04.906,2.69389465,,,
04.908,2.323638131,,,
04.910,2.536338684,,,
04.912,2.638750062,,,
04.914,2.678139053,,,
04.916,2.686016851,,,
04.918,2.898717405,,,
04.920,2.993250984,,,
04.922,3.040517774,,,
04.924,2.87508401,,,
04.926,2.780550431,,,
04.928,2.402416113,,,
04.930,2.583605474,,,
04.932,2.701772448,,,
04.934,2.701772448,,,
04.936,2.835695019,,,
04.938,2.961739791,,,
04.940,3.095662362,,,
04.942,3.135051353,,,
04.944,2.985373186,,,
04.946,2.851450615,,,
04.948,2.433927307,,,
04.950,2.709650246,,,
04.952,2.701772448,,,
04.954,2.749039238,,,
04.956,2.985373186,,,
04.958,2.961739791,,,
04.960,3.221707134,,,
04.962,3.079906765,,,
04.964,2.930228598,,,
04.966,2.756917036,,,
04.968,2.41817171,,,
04.970,2.615116667,,,
04.972,2.638750062,,,
04.974,2.615116667,,,
04.976,2.851450615,,,
04.978,2.835695019,,,
04.980,2.930228598,,,
04.982,2.969617589,,,
04.984,2.733283641,,,
04.986,2.512705289,,,
04.988,2.18971556,,,
04.990,2.433927307,,,
04.992,2.481194096,,,
04.994,2.489071895,,,
04.996,2.575727676,,,
04.998,2.701772448,,,
05.000,2.87508401,,,
05.002,2.804183826,,,
05.004,2.615116667,,,
05.006,2.37090492,,,
05.008,2.14244877,,,
05.010,2.386660517,,,
05.012,2.363027122,,,
05.014,2.402416113,,,
05.016,2.552094281,,,
05.018,2.528460886,,,
05.020,2.717528045,,,
05.022,2.701772448,,,
05.024,2.607238869,,,
05.026,2.363027122,,,
05.028,2.095181981,,,
05.030,2.323638131,,,
05.032,2.284249139,,,
05.034,2.481194096,,,
05.036,2.552094281,,,
05.038,2.544216482,,,
05.040,2.804183826,,,
05.042,2.733283641,,,
05.044,2.591483272,,,
05.046,2.260615744,,,
05.048,2.118815375,,,
05.050,2.378782719,,,
05.052,2.363027122,,,
05.054,2.481194096,,,
05.056,2.615116667,,,
05.058,2.591483272,,,
05.060,2.82781722,,,
05.062,2.717528045,,,
05.064,2.567849877,,,
05.066,2.315760332,,,
05.068,2.063670788,,,
05.070,2.323638131,,,
05.072,2.323638131,,,
05.074,2.394538315,,,
05.076,2.536338684,,,
05.078,2.496949693,,,
05.080,2.780550431,,,
05.082,2.741161439,,,
05.084,2.552094281,,,
05.086,2.252737946,,,
05.088,2.103059779,,,
05.090,2.292126938,,,
05.092,2.284249139,,,
05.094,2.41817171,,,
05.096,2.544216482,,,
05.098,2.520583088,,,
05.100,2.788428229,,,
05.102,2.709650246,,,
05.104,2.512705289,,,
05.106,2.244860148,,,
05.108,2.166082165,,,
05.110,2.347271526,,,
05.112,2.331515929,,,
05.114,2.473316298,,,
05.116,2.575727676,,,
05.118,2.591483272,,,
05.120,2.82781722,,,
05.122,2.717528045,,,
05.124,2.544216482,,,
05.126,2.284249139,,,
05.128,2.221226753,,,
05.130,2.323638131,,,
05.132,2.331515929,,,
05.134,2.457560701,,,
05.136,2.638750062,,,
05.138,2.638750062,,,
05.140,2.835695019,,,
05.142,2.709650246,,,
05.144,2.575727676,,,
05.146,2.260615744,,,
05.148,2.229104551,,,
05.150,2.386660517,,,
05.152,2.441805105,,,
05.154,2.512705289,,,
05.156,2.59936107,,,
05.158,2.654505658,,,
05.160,2.859328414,,,
05.162,2.69389465,,,
05.164,2.583605474,,,
05.166,2.197593358,,,
05.168,2.276371341,,,
05.170,2.347271526,,,
05.172,2.394538315,,,
05.174,2.496949693,,,
05.176,2.567849877,,,
05.178,2.733283641,,,
05.180,2.843572817,,,
05.182,2.654505658,,,
05.184,2.544216482,,,
05.186,2.166082165,,,
05.188,2.268493543,,,
05.190,2.433927307,,,
05.192,2.386660517,,,
05.194,2.489071895,,,
05.196,2.662383457,,,
05.198,2.733283641,,,
05.200,2.819939422,,,
05.202,2.536338684,,,
05.204,2.607238869,,,
05.206,2.252737946,,,
05.208,2.315760332,,,
05.210,2.378782719,,,
05.212,2.441805105,,,
05.214,2.512705289,,,
05.216,2.622994465,,,
05.218,2.788428229,,,
05.220,2.851450615,,,
05.222,2.630872263,,,
05.224,2.481194096,,,
05.226,2.14244877,,,
05.228,2.410293912,,,
05.230,2.41817171,,,
05.232,2.441805105,,,
05.234,2.559972079,,,
05.236,2.717528045,,,
05.238,2.764794834,,,
05.240,2.772672632,,,
05.242,2.701772448,,,
05.244,2.512705289,,,
05.246,2.118815375,,,
05.248,2.331515929,,,
05.250,2.41817171,,,
05.252,2.441805105,,,
05.254,2.552094281,,,
05.256,2.622994465,,,
05.258,2.851450615,,,
05.260,2.819939422,,,
05.262,2.717528045,,,
05.264,2.489071895,,,
05.266,2.150326569,,,
05.268,2.386660517,,,
05.270,2.473316298,,,
05.272,2.481194096,,,
05.274,2.630872263,,,
05.276,2.630872263,,,
05.278,2.87508401,,,
05.280,2.890839607,,,
05.282,2.69389465,,,
05.284,2.552094281,,,
05.286,2.213348955,,,
05.288,2.457560701,,,
05.290,2.449682903,,,
05.292,2.489071895,,,
05.294,2.607238869,,,
05.296,2.615116667,,,
05.298,2.977495388,,,
05.300,2.890839607,,,
05.302,2.678139053,,,
05.304,2.441805105,,,
05.306,2.244860148,,,
05.308,2.496949693,,,
05.310,2.512705289,,,
05.312,2.583605474,,,
05.314,2.670261255,,,
05.316,2.670261255,,,
05.318,2.945984195,,,
05.320,2.914473001,,,
05.322,2.678139053,,,
05.324,2.457560701,,,
05.326,2.213348955,,,
05.328,2.528460886,,,
05.330,2.496949693,,,
05.332,2.544216482,,,
05.334,2.638750062,,,
05.336,2.607238869,,,
05.338,2.938106396,,,
05.340,2.930228598,,,
05.342,2.69389465,,,
05.344,2.457560701,,,
05.346,2.252737946,,,
05.348,2.481194096,,,
05.350,2.536338684,,,
05.352,2.520583088,,,
05.354,2.709650246,,,
05.356,2.709650246,,,
05.358,2.977495388,,,
05.360,2.914473001,,,
05.362,2.756917036,,,
05.364,2.481194096,,,
05.366,2.268493543,,,
05.368,2.504827491,,,
05.370,2.520583088,,,
05.372,2.678139053,,,
05.374,2.749039238,,,
05.376,2.819939422,,,
05.378,3.040517774,,,
05.380,2.906595203,,,
05.382,2.725405843,,,
05.384,2.457560701,,,
05.386,2.347271526,,,
05.388,2.638750062,,,
05.390,2.544216482,,,
05.392,2.662383457,,,
05.394,2.780550431,,,
05.396,2.804183826,,,
05.398,3.032639976,,,
05.400,2.867206212,,,
05.402,2.890839607,,,
05.404,2.575727676,,,
05.406,2.378782719,,,
05.408,2.622994465,,,
05.410,2.662383457,,,
05.412,2.741161439,,,
05.414,2.906595203,,,
05.416,2.985373186,,,
05.418,3.166562546,,,
05.420,3.064151169,,,
05.422,2.906595203,,,
05.424,2.567849877,,,
05.426,2.520583088,,,
05.428,2.709650246,,,
05.430,2.69389465,,,
05.432,2.851450615,,,
05.434,2.993250984,,,
05.436,2.969617589,,,
05.438,3.182318143,,,
05.440,3.040517774,,,
05.442,2.906595203,,,
05.444,2.559972079,,,
05.446,2.552094281,,,
05.448,2.662383457,,,
05.450,2.701772448,,,
05.452,2.756917036,,,
05.454,3.032639976,,,
05.456,2.961739791,,,
05.458,3.016884379,,,
05.460,2.835695019,,,
05.462,2.796306027,,,
05.464,2.426049508,,,
05.466,2.441805105,,,
05.468,2.575727676,,,
05.470,2.567849877,,,
05.472,2.638750062,,,
05.474,2.780550431,,,
05.476,2.819939422,,,
05.478,3.064151169,,,
05.480,2.930228598,,,
05.482,2.678139053,,,
05.484,2.252737946,,,
05.486,2.536338684,,,
05.488,2.544216482,,,
05.490,2.59936107,,,
05.492,2.701772448,,,
05.494,2.835695019,,,
05.496,2.906595203,,,
05.498,2.969617589,,,
05.500,2.835695019,,,
05.502,2.686016851,,,
05.504,2.378782719,,,
05.506,2.575727676,,,
05.508,2.654505658,,,
05.510,2.575727676,,,
05.512,2.733283641,,,
05.514,2.835695019,,,
05.516,2.914473001,,,
05.518,2.930228598,,,
05.520,2.686016851,,,
05.522,2.622994465,,,
05.524,2.229104551,,,
05.526,2.394538315,,,
05.528,2.433927307,,,
05.530,2.512705289,,,
05.532,2.615116667,,,
05.534,2.717528045,,,
05.536,3.095662362,,,
05.538,3.347751907,,,
05.540,3.355629705,,,
05.542,3.395018696,,,
05.544,3.324118512,,,
05.546,3.773153014,,,
05.548,4.072509348,,,
05.550,4.269454305,,,
05.552,4.490032657,,,
05.554,4.497910455,,,
05.556,4.616077429,,,
05.558,4.616077429,,,
05.560,4.190676322,,,
05.562,3.733764022,,,
05.564,3.410774293,,,
05.566,3.458041083,,,
05.568,3.229584933,,,
05.570,3.016884379,,,
05.572,2.993250984,,,
05.574,2.9223508,,,
05.576,3.111417958,,,
05.578,3.024762177,,,
05.580,2.756917036,,,
05.582,2.622994465,,,
05.584,2.181837762,,,
05.586,2.457560701,,,
05.588,2.489071895,,,
05.590,2.496949693,,,
05.592,2.64662786,,,
05.594,2.701772448,,,
05.596,2.961739791,,,
05.598,2.882961808,,,
05.600,2.780550431,,,
05.602,2.473316298,,,
05.604,2.23698235,,,
05.606,2.528460886,,,
05.608,2.567849877,,,
05.610,2.615116667,,,
05.612,2.670261255,,,
05.614,2.82781722,,,
05.616,3.072028967,,,
05.618,2.977495388,,,
05.620,2.780550431,,,
05.622,2.512705289,,,
05.624,2.252737946,,,
05.626,2.583605474,,,
05.628,2.607238869,,,
05.630,2.678139053,,,
05.632,2.780550431,,,
05.634,2.859328414,,,
05.636,3.024762177,,,
05.638,3.001128783,,,
05.640,2.804183826,,,
05.642,2.520583088,,,
05.644,2.276371341,,,
05.646,2.630872263,,,
05.648,2.4654385,,,
05.650,2.678139053,,,
05.652,2.725405843,,,
05.654,2.796306027,,,
05.656,3.048395572,,,
05.658,3.001128783,,,
05.660,2.859328414,,,
05.662,2.512705289,,,
05.664,2.394538315,,,
05.666,2.567849877,,,
05.668,2.591483272,,,
05.670,2.686016851,,,
05.672,2.835695019,,,
05.674,2.843572817,,,
05.676,3.087784564,,,
05.678,3.040517774,,,
05.680,2.835695019,,,
05.682,2.363027122,,,
05.684,2.315760332,,,
05.686,2.64662786,,,
05.688,2.615116667,,,
05.690,2.749039238,,,
05.692,2.890839607,,,
05.694,2.87508401,,,
05.696,3.166562546,,,
05.698,2.945984195,,,
05.700,2.812061624,,,
05.702,2.489071895,,,
05.704,2.504827491,,,
05.706,2.69389465,,,
05.708,2.64662786,,,
05.710,2.772672632,,,
05.712,2.906595203,,,
05.714,2.859328414,,,
05.716,3.10354016,,,
05.718,2.938106396,,,
05.720,2.882961808,,,
05.722,2.59936107,,,
05.724,2.575727676,,,
05.726,2.733283641,,,
05.728,2.756917036,,,
05.730,2.812061624,,,
05.732,2.977495388,,,
05.734,2.985373186,,,
05.736,3.174440345,,,
05.738,3.072028967,,,
05.740,2.961739791,,,
05.742,2.59936107,,,
05.744,2.725405843,,,
05.746,2.796306027,,,
05.748,2.804183826,,,
05.750,2.867206212,,,
05.752,3.001128783,,,
05.754,3.111417958,,,
05.756,3.276851722,,,
05.758,3.158684748,,,
05.760,3.072028967,,,
05.762,2.662383457,,,
05.764,2.749039238,,,
05.766,2.882961808,,,
05.768,2.961739791,,,
05.770,2.9223508,,,
05.772,3.142929151,,,
05.774,3.33199631,,,
05.776,3.442285486,,,
05.778,3.221707134,,,
05.780,3.166562546,,,
05.782,2.835695019,,,
05.784,2.906595203,,,
05.786,3.032639976,,,
05.788,3.032639976,,,
05.790,3.079906765,,,
05.792,3.182318143,,,
05.794,3.316240714,,,
05.796,3.418652091,,,
05.798,3.253218327,,,
05.800,3.142929151,,,
05.802,2.686016851,,,
05.804,2.985373186,,,
05.806,3.009006581,,,
05.808,3.095662362,,,
05.810,3.158684748,,,
05.812,3.229584933,,,
05.814,3.387140898,,,
05.816,3.442285486,,,
05.818,3.198073739,,,
05.820,3.095662362,,,
05.822,2.717528045,,,
05.824,2.953861993,,,
05.826,2.930228598,,,
05.828,2.882961808,,,
05.830,2.993250984,,,
05.832,3.064151169,,,
05.834,3.300485117,,,
05.836,3.316240714,,,
05.838,3.009006581,,,
05.840,2.898717405,,,
05.842,2.528460886,,,
05.844,2.749039238,,,
05.846,2.741161439,,,
05.848,2.733283641,,,
05.850,2.953861993,,,
05.852,2.977495388,,,
05.854,3.213829336,,,
05.856,3.119295757,,,
05.858,2.882961808,,,
05.860,2.701772448,,,
05.862,2.394538315,,,
05.864,2.670261255,,,
05.866,2.701772448,,,
05.868,2.733283641,,,
05.870,2.867206212,,,
05.872,2.906595203,,,
05.874,3.142929151,,,
05.876,3.064151169,,,
05.878,2.87508401,,,
05.880,2.654505658,,,
05.882,2.37090492,,,
05.884,2.630872263,,,
05.886,2.615116667,,,
05.888,2.662383457,,,
05.890,2.82781722,,,
05.892,2.859328414,,,
05.894,3.142929151,,,
05.896,3.087784564,,,
05.898,2.717528045,,,
05.900,2.64662786,,,
05.902,2.41817171,,,
05.904,2.622994465,,,
05.906,2.615116667,,,
05.908,2.64662786,,,
05.910,2.780550431,,,
05.912,2.914473001,,,
05.914,3.048395572,,,
05.916,3.001128783,,,
05.918,2.819939422,,,
05.920,2.559972079,,,
05.922,2.378782719,,,
05.924,2.686016851,,,
05.926,2.662383457,,,
05.928,2.733283641,,,
05.930,2.819939422,,,
05.932,2.859328414,,,
05.934,3.127173555,,,
05.936,3.072028967,,,
05.938,2.961739791,,,
05.940,2.536338684,,,
05.942,2.331515929,,,
05.944,2.686016851,,,
05.946,2.717528045,,,
05.948,2.717528045,,,
05.950,2.890839607,,,
05.952,2.953861993,,,
05.954,3.095662362,,,
05.956,3.087784564,,,
05.958,2.914473001,,,
05.960,2.654505658,,,
05.962,2.473316298,,,
05.964,2.662383457,,,
05.966,2.69389465,,,
05.968,2.788428229,,,
05.970,2.9223508,,,
05.972,2.938106396,,,
05.974,3.10354016,,,
05.976,3.048395572,,,
05.978,2.859328414,,,
05.980,2.583605474,,,
05.982,2.473316298,,,
05.984,2.59936107,,,
05.986,2.69389465,,,
05.988,2.788428229,,,
05.990,2.882961808,,,
05.992,2.938106396,,,
05.994,3.15080695,,,
05.996,3.024762177,,,
05.998,2.882961808,,,
06.000,2.591483272,,,
06.002,2.496949693,,,
06.004,2.678139053,,,
06.006,2.780550431,,,
06.008,2.804183826,,,
06.010,2.82781722,,,
06.012,2.87508401,,,
06.014,3.127173555,,,
06.016,3.001128783,,,
06.018,2.890839607,,,
06.020,2.536338684,,,
06.022,2.481194096,,,
06.024,2.686016851,,,
06.026,2.725405843,,,
06.028,2.733283641,,,
06.030,2.867206212,,,
06.032,2.938106396,,,
06.034,3.135051353,,,
06.036,2.977495388,,,
06.038,2.890839607,,,
06.040,2.528460886,,,
06.042,2.520583088,,,
06.044,2.678139053,,,
06.046,2.772672632,,,
06.048,2.819939422,,,
06.050,2.882961808,,,
06.052,3.016884379,,,
06.054,3.182318143,,,
06.056,2.993250984,,,
06.058,2.812061624,,,
06.060,2.433927307,,,
06.062,2.504827491,,,
06.064,2.686016851,,,
06.066,2.678139053,,,
06.068,2.772672632,,,
06.070,2.843572817,,,
06.072,3.024762177,,,
06.074,3.087784564,,,
06.076,2.938106396,,,
06.078,2.87508401,,,
06.080,2.489071895,,,
06.082,2.654505658,,,
06.084,2.670261255,,,
06.086,2.772672632,,,
06.088,2.796306027,,,
06.090,2.945984195,,,
06.092,3.001128783,,,
06.094,3.158684748,,,
06.096,3.032639976,,,
06.098,2.890839607,,,
06.100,2.489071895,,,
06.102,2.583605474,,,
06.104,2.709650246,,,
06.106,2.788428229,,,
06.108,2.938106396,,,
06.110,2.9223508,,,
06.112,3.072028967,,,
06.114,3.135051353,,,
06.116,2.938106396,,,
06.118,2.788428229,,,
06.120,2.426049508,,,
06.122,2.686016851,,,
06.124,2.796306027,,,
06.126,2.812061624,,,
06.128,2.985373186,,,
06.130,2.977495388,,,
06.132,3.10354016,,,
06.134,3.190195941,,,
06.136,2.977495388,,,
06.138,2.796306027,,,
06.140,2.457560701,,,
06.142,2.788428229,,,
06.144,2.804183826,,,
06.146,2.749039238,,,
06.148,2.890839607,,,
06.150,3.016884379,,,
06.152,3.190195941,,,
06.154,3.213829336,,,
06.156,3.001128783,,,
06.158,2.749039238,,,
06.160,2.449682903,,,
06.162,2.709650246,,,
06.164,2.733283641,,,
06.166,2.812061624,,,
06.168,2.985373186,,,
06.170,2.985373186,,,
06.172,3.276851722,,,
06.174,3.190195941,,,
06.176,2.867206212,,,
06.178,2.717528045,,,
06.180,2.544216482,,,
06.182,2.772672632,,,
06.184,2.819939422,,,
06.186,2.906595203,,,
06.188,2.945984195,,,
06.190,2.977495388,,,
06.192,3.292607319,,,
06.194,3.166562546,,,
06.196,2.945984195,,,
06.198,2.717528045,,,
06.200,2.457560701,,,
06.202,2.733283641,,,
06.204,2.717528045,,,
06.206,2.851450615,,,
06.208,2.969617589,,,
06.210,2.985373186,,,
06.212,3.308362915,,,
06.214,3.213829336,,,
06.216,3.009006581,,,
06.218,2.764794834,,,
06.220,2.583605474,,,
06.222,2.87508401,,,
06.224,2.898717405,,,
06.226,2.914473001,,,
06.228,3.024762177,,,
06.230,3.079906765,,,
06.232,3.339874108,,,
06.234,3.316240714,,,
06.236,3.111417958,,,
06.238,2.82781722,,,
06.240,2.69389465,,,
06.242,2.930228598,,,
06.244,2.914473001,,,
06.246,2.882961808,,,
06.248,2.977495388,,,
06.250,3.016884379,,,
06.252,3.371385302,,,
06.254,3.205951538,,,
06.256,3.064151169,,,
06.258,2.796306027,,,
06.260,2.59936107,,,
06.262,2.804183826,,,
06.264,2.780550431,,,
06.266,2.890839607,,,
06.268,2.977495388,,,
06.270,2.9223508,,,
06.272,3.237462731,,,
06.274,3.142929151,,,
06.276,2.9223508,,,
06.278,2.59936107,,,
06.280,2.552094281,,,
06.282,2.788428229,,,
06.284,2.733283641,,,
06.286,2.772672632,,,
06.288,2.906595203,,,
06.290,2.898717405,,,
06.292,3.158684748,,,
06.294,3.016884379,,,
06.296,2.9223508,,,
06.298,2.544216482,,,
06.300,2.528460886,,,
06.302,2.717528045,,,
06.304,2.780550431,,,
06.306,2.796306027,,,
06.308,2.867206212,,,
06.310,2.985373186,,,
06.312,3.072028967,,,
06.314,2.977495388,,,
06.316,2.953861993,,,
06.318,2.552094281,,,
06.320,2.544216482,,,
06.322,2.528460886,,,
06.324,2.583605474,,,
06.326,2.678139053,,,
06.328,2.756917036,,,
06.330,2.898717405,,,
06.332,3.040517774,,,
06.334,2.780550431,,,
06.336,2.670261255,,,
06.338,2.378782719,,,
06.340,2.41817171,,,
06.342,2.386660517,,,
06.344,2.512705289,,,
06.346,2.59936107,,,
06.348,2.772672632,,,
06.350,2.977495388,,,
06.352,3.33199631,,,
06.354,3.308362915,,,
06.356,3.363507503,,,
06.358,3.292607319,,,
06.360,3.694375031,,,
06.362,3.930708979,,,
06.364,4.072509348,,,
06.366,4.348232288,,,
06.368,4.505788253,,,
06.370,4.623955228,,,
06.372,4.75,,,
06.374,4.403376876,,,
06.376,4.11189834,,,
06.378,3.497430074,,,
06.380,3.465918881,,,
06.382,3.465918881,,,
06.384,3.205951538,,,
06.386,3.048395572,,,
06.388,2.993250984,,,
06.390,3.05627337,,,
06.392,3.111417958,,,
06.394,2.914473001,,,
06.396,2.788428229,,,
06.398,2.284249139,,,
06.400,2.473316298,,,
06.402,2.583605474,,,
06.404,2.544216482,,,
06.406,2.69389465,,,
06.408,2.772672632,,,
06.410,2.985373186,,,
06.412,3.016884379,,,
06.414,2.812061624,,,
06.416,2.64662786,,,
06.418,2.300004736,,,
06.420,2.591483272,,,
06.422,2.567849877,,,
06.424,2.756917036,,,
06.426,2.914473001,,,
06.428,2.890839607,,,
06.430,3.087784564,,,
06.432,3.095662362,,,
06.434,2.882961808,,,
06.436,2.69389465,,,
06.438,2.37090492,,,
06.440,2.607238869,,,
06.442,2.725405843,,,
06.444,2.772672632,,,
06.446,2.851450615,,,
06.448,2.851450615,,,
06.450,3.079906765,,,
06.452,3.111417958,,,
06.454,2.898717405,,,
06.456,2.733283641,,,
06.458,2.426049508,,,
06.460,2.701772448,,,
06.462,2.678139053,,,
06.464,2.717528045,,,
06.466,2.819939422,,,
06.468,2.890839607,,,
06.470,3.064151169,,,
06.472,3.079906765,,,
06.474,2.890839607,,,
06.476,2.709650246,,,
06.478,2.386660517,,,
06.480,2.607238869,,,
06.482,2.725405843,,,
06.484,2.709650246,,,
06.486,2.87508401,,,
06.488,2.906595203,,,
06.490,3.15080695,,,
06.492,3.166562546,,,
06.494,2.898717405,,,
06.496,2.638750062,,,
06.498,2.386660517,,,
06.500,2.662383457,,,
06.502,2.701772448,,,
06.504,2.725405843,,,
06.506,2.87508401,,,
06.508,2.906595203,,,
06.510,3.190195941,,,
06.512,3.072028967,,,
06.514,2.977495388,,,
06.516,2.756917036,,,
06.518,2.347271526,,,
06.520,2.756917036,,,
06.522,2.638750062,,,
06.524,2.780550431,,,
06.526,2.993250984,,,
06.528,3.079906765,,,
06.530,3.308362915,,,
06.532,3.158684748,,,
06.534,2.969617589,,,
06.536,2.670261255,,,
06.538,2.457560701,,,
06.540,2.780550431,,,
06.542,2.772672632,,,
06.544,2.882961808,,,
06.546,3.009006581,,,
06.548,2.898717405,,,
06.550,3.253218327,,,
06.552,3.253218327,,,
06.554,3.072028967,,,
06.556,2.701772448,,,
06.558,2.59936107,,,
06.560,2.851450615,,,
06.562,2.851450615,,,
06.564,2.930228598,,,
06.566,3.087784564,,,
06.568,3.174440345,,,
06.570,3.418652091,,,
06.572,3.28472952,,,
06.574,3.119295757,,,
06.576,2.756917036,,,
06.578,2.733283641,,,
06.580,2.985373186,,,
06.582,3.009006581,,,
06.584,3.119295757,,,
06.586,3.190195941,,,
06.588,3.205951538,,,
06.590,3.489552276,,,
06.592,3.402896495,,,
06.594,3.190195941,,,
06.596,2.859328414,,,
06.598,2.87508401,,,
06.600,3.072028967,,,
06.602,3.05627337,,,
06.604,3.135051353,,,
06.606,3.300485117,,,
06.608,3.363507503,,,
06.610,3.60771925,,,
06.612,3.426529889,,,
06.614,3.261096126,,,
06.616,2.961739791,,,
06.618,3.032639976,,,
06.620,3.182318143,,,
06.622,3.119295757,,,
06.624,3.166562546,,,
06.626,3.182318143,,,
06.628,3.237462731,,,
06.630,3.481674477,,,
06.632,3.268973924,,,
06.634,3.174440345,,,
06.636,2.819939422,,,
06.638,2.930228598,,,
06.640,2.953861993,,,
06.642,2.938106396,,,
06.644,3.072028967,,,
06.646,3.158684748,,,
06.648,3.221707134,,,
06.650,3.261096126,,,
06.652,3.032639976,,,
06.654,2.969617589,,,
06.656,2.615116667,,,
06.658,2.764794834,,,
06.660,2.804183826,,,
06.662,2.890839607,,,
06.664,2.945984195,,,
06.666,3.032639976,,,
06.668,3.10354016,,,
06.670,3.166562546,,,
06.672,3.016884379,,,
06.674,2.953861993,,,
06.676,2.504827491,,,
06.678,2.654505658,,,
06.680,2.725405843,,,
06.682,2.772672632,,,
06.684,2.930228598,,,
06.686,2.945984195,,,
06.688,3.198073739,,,
06.690,3.190195941,,,
06.692,2.961739791,,,
06.694,2.812061624,,,
06.696,2.4654385,,,
06.698,2.678139053,,,
06.700,2.764794834,,,
06.702,2.788428229,,,
06.704,2.82781722,,,
06.706,2.930228598,,,
06.708,2.993250984,,,
06.710,3.15080695,,,
06.712,2.938106396,,,
06.714,2.772672632,,,
06.716,2.41817171,,,
06.718,2.654505658,,,
06.720,2.764794834,,,
06.722,2.788428229,,,
06.724,2.812061624,,,
06.726,2.890839607,,,
06.728,3.158684748,,,
06.730,3.095662362,,,
06.732,2.938106396,,,
06.734,2.741161439,,,
06.736,2.457560701,,,
06.738,2.654505658,,,
06.740,2.717528045,,,
06.742,2.701772448,,,
06.744,2.867206212,,,
06.746,2.859328414,,,
06.748,3.095662362,,,
06.750,3.064151169,,,
06.752,2.851450615,,,
06.754,2.733283641,,,
06.756,2.426049508,,,
06.758,2.615116667,,,
06.760,2.717528045,,,
06.762,2.82781722,,,
06.764,2.882961808,,,
06.766,2.9223508,,,
06.768,3.048395572,,,
06.770,3.095662362,,,
06.772,2.906595203,,,
06.774,2.638750062,,,
06.776,2.449682903,,,
06.778,2.64662786,,,
06.780,2.717528045,,,
06.782,2.717528045,,,
06.784,2.82781722,,,
06.786,2.993250984,,,
06.788,3.182318143,,,
06.790,3.127173555,,,
06.792,2.843572817,,,
06.794,2.512705289,,,
06.796,2.426049508,,,
06.798,2.725405843,,,
06.800,2.69389465,,,
06.802,2.749039238,,,
06.804,2.898717405,,,
06.806,2.906595203,,,
06.808,3.166562546,,,
06.810,3.119295757,,,
06.812,2.867206212,,,
06.814,2.591483272,,,
06.816,2.433927307,,,
06.818,2.725405843,,,
06.820,2.69389465,,,
06.822,2.69389465,,,
06.824,2.843572817,,,
06.826,2.945984195,,,
06.828,3.245340529,,,
06.830,3.064151169,,,
06.832,2.859328414,,,
06.834,2.615116667,,,
06.836,2.512705289,,,
06.838,2.749039238,,,
06.840,2.741161439,,,
06.842,2.780550431,,,
06.844,2.898717405,,,
06.846,2.87508401,,,
06.848,3.127173555,,,
06.850,3.072028967,,,
06.852,3.032639976,,,
06.854,2.607238869,,,
06.856,2.457560701,,,
06.858,2.670261255,,,
06.860,2.64662786,,,
06.862,2.725405843,,,
06.864,2.867206212,,,
06.866,2.87508401,,,
06.868,3.182318143,,,
06.870,3.040517774,,,
06.872,2.859328414,,,
06.874,2.559972079,,,
06.876,2.426049508,,,
06.878,2.725405843,,,
06.880,2.749039238,,,
06.882,2.725405843,,,
06.884,2.859328414,,,
06.886,2.890839607,,,
06.888,3.119295757,,,
06.890,2.9223508,,,
06.892,2.812061624,,,
06.894,2.583605474,,,
06.896,2.536338684,,,
06.898,2.662383457,,,
06.900,2.709650246,,,
06.902,2.709650246,,,
06.904,2.867206212,,,
06.906,2.961739791,,,
06.908,3.111417958,,,
06.910,2.969617589,,,
06.912,2.812061624,,,
06.914,2.4654385,,,
06.916,2.528460886,,,
06.918,2.756917036,,,
06.920,2.670261255,,,
06.922,2.772672632,,,
06.924,2.819939422,,,
06.926,2.890839607,,,
06.928,3.111417958,,,
06.930,2.930228598,,,
06.932,2.819939422,,,
06.934,2.394538315,,,
06.936,2.559972079,,,
06.938,2.654505658,,,
06.940,2.701772448,,,
06.942,2.701772448,,,
06.944,2.882961808,,,
06.946,3.142929151,,,
06.948,3.072028967,,,
06.950,2.898717405,,,
06.952,2.788428229,,,
06.954,2.449682903,,,
06.956,2.615116667,,,
06.958,2.741161439,,,
06.960,2.780550431,,,
06.962,2.749039238,,,
06.964,2.867206212,,,
06.966,3.016884379,,,
06.968,3.040517774,,,
06.970,2.867206212,,,
06.972,2.804183826,,,
06.974,2.433927307,,,
06.976,2.615116667,,,
06.978,2.670261255,,,
06.980,2.709650246,,,
06.982,2.709650246,,,
06.984,2.9223508,,,
06.986,3.079906765,,,
06.988,3.119295757,,,
06.990,2.906595203,,,
06.992,2.788428229,,,
06.994,2.394538315,,,
06.996,2.583605474,,,
06.998,2.69389465,,,
07.000,2.686016851,,,
07.002,2.87508401,,,
07.004,2.867206212,,,
07.006,3.079906765,,,
07.008,3.079906765,,,
07.010,2.843572817,,,
07.012,2.662383457,,,
07.014,2.410293912,,,
07.016,2.670261255,,,
07.018,2.725405843,,,
07.020,2.804183826,,,
07.022,2.977495388,,,
07.024,2.87508401,,,
07.026,3.119295757,,,
07.028,3.079906765,,,
07.030,2.906595203,,,
07.032,2.717528045,,,
07.034,2.528460886,,,
07.036,2.717528045,,,
07.038,2.764794834,,,
07.040,2.756917036,,,
07.042,2.938106396,,,
07.044,2.938106396,,,
07.046,3.198073739,,,
07.048,3.15080695,,,
07.050,2.977495388,,,
07.052,2.670261255,,,
07.054,2.473316298,,,
07.056,2.630872263,,,
07.058,2.69389465,,,
07.060,2.733283641,,,
07.062,2.788428229,,,
07.064,2.851450615,,,
07.066,3.142929151,,,
07.068,3.05627337,,,
07.070,2.851450615,,,
07.072,2.591483272,,,
07.074,2.386660517,,,
07.076,2.567849877,,,
07.078,2.622994465,,,
07.080,2.638750062,,,
07.082,2.796306027,,,
07.084,2.819939422,,,
07.086,3.024762177,,,
07.088,2.961739791,,,
07.090,2.749039238,,,
07.092,2.544216482,,,
07.094,2.252737946,,,
07.096,2.441805105,,,
07.098,2.4654385,,,
07.100,2.559972079,,,
07.102,2.709650246,,,
07.104,2.733283641,,,
07.106,2.977495388,,,
07.108,2.87508401,,,
07.110,2.662383457,,,
07.112,2.402416113,,,
07.114,2.158204367,,,
07.116,2.355149324,,,
07.118,2.559972079,,,
07.120,2.591483272,,,
07.122,2.701772448,,,
07.124,2.709650246,,,
07.126,2.9223508,,,
07.128,2.82781722,,,
07.130,2.630872263,,,
07.132,2.307882534,,,
07.134,2.173959963,,,
07.136,2.41817171,,,
07.138,2.394538315,,,
07.140,2.481194096,,,
07.142,2.528460886,,,
07.144,2.489071895,,,
07.146,2.733283641,,,
07.148,2.622994465,,,
07.150,2.386660517,,,
07.152,2.14244877,,,
07.154,2.047915191,,,
07.156,2.347271526,,,
07.158,2.37090492,,,
07.160,2.544216482,,,
07.162,2.835695019,,,
07.164,2.985373186,,,
07.166,3.473796679,,,
07.168,3.576208057,,,
07.170,3.686497233,,,
07.172,3.552574662,,,
07.174,3.694375031,,,
07.176,3.954342374,,,
07.178,3.993731365,,,
07.180,4.033120357,,,
07.182,4.072509348,,,
07.184,3.985853567,,,
07.186,4.001609164,,,
07.188,3.702252829,,,
07.190,3.442285486,,,
07.192,2.906595203,,,
07.194,2.686016851,,,
07.196,2.544216482,,,
07.198,2.528460886,,,
07.200,2.552094281,,,
07.202,2.552094281,,,
07.204,2.591483272,,,
07.206,2.788428229,,,
07.208,2.481194096,,,
07.210,2.331515929,,,
07.212,2.024281796,,,
07.214,2.016403998,,,
07.216,2.23698235,,,
07.218,2.158204367,,,
07.220,2.268493543,,,
07.222,2.481194096,,,
07.224,2.607238869,,,
07.226,2.764794834,,,
07.228,2.552094281,,,
07.230,2.4654385,,,
07.232,2.110937577,,,
07.234,2.23698235,,,
07.236,2.363027122,,,
07.238,2.402416113,,,
07.240,2.552094281,,,
07.242,2.662383457,,,
07.244,2.764794834,,,
07.246,2.804183826,,,
07.248,2.638750062,,,
07.250,2.567849877,,,
07.252,2.173959963,,,
07.254,2.347271526,,,
07.256,2.4654385,,,
07.258,2.489071895,,,
07.260,2.559972079,,,
07.262,2.59936107,,,
07.264,2.772672632,,,
07.266,2.804183826,,,
07.268,2.670261255,,,
07.270,2.528460886,,,
07.272,2.229104551,,,
07.274,2.4654385,,,
07.276,2.583605474,,,
07.278,2.504827491,,,
07.280,2.575727676,,,
07.282,2.69389465,,,
07.284,2.9223508,,,
07.286,2.843572817,,,
07.288,2.630872263,,,
07.290,2.559972079,,,
07.292,2.18971556,,,
07.294,2.410293912,,,
07.296,2.481194096,,,
07.298,2.544216482,,,
07.300,2.662383457,,,
07.302,2.733283641,,,
07.304,2.914473001,,,
07.306,2.930228598,,,
07.308,2.709650246,,,
07.310,2.489071895,,,
07.312,2.229104551,,,
07.314,2.473316298,,,
07.316,2.4654385,,,
07.318,2.536338684,,,
07.320,2.670261255,,,
07.322,2.725405843,,,
07.324,2.898717405,,,
07.326,2.9223508,,,
07.328,2.662383457,,,
07.330,2.504827491,,,
07.332,2.18971556,,,
07.334,2.552094281,,,
07.336,2.591483272,,,
07.338,2.496949693,,,
07.340,2.678139053,,,
07.342,2.843572817,,,
07.344,3.024762177,,,
07.346,2.930228598,,,
07.348,2.788428229,,,
07.350,2.536338684,,,
07.352,2.23698235,,,
07.354,2.583605474,,,
07.356,2.622994465,,,
07.358,2.64662786,,,
07.360,2.796306027,,,
07.362,2.843572817,,,
07.364,3.048395572,,,
07.366,3.001128783,,,
07.368,2.87508401,,,
07.370,2.638750062,,,
07.372,2.410293912,,,
07.374,2.662383457,,,
07.376,2.709650246,,,
07.378,2.835695019,,,
07.380,2.906595203,,,
07.382,2.993250984,,,
07.384,3.205951538,,,
07.386,3.158684748,,,
07.388,2.938106396,,,
07.390,2.788428229,,,
07.392,2.559972079,,,
07.394,2.678139053,,,
07.396,2.780550431,,,
07.398,2.882961808,,,
07.400,3.05627337,,,
07.402,3.119295757,,,
07.404,3.371385302,,,
07.406,3.276851722,,,
07.408,3.111417958,,,
07.410,2.867206212,,,
07.412,2.654505658,,,
07.414,2.890839607,,,
07.416,2.945984195,,,
07.418,3.10354016,,,
07.420,3.072028967,,,
07.422,3.166562546,,,
07.424,3.402896495,,,
07.426,3.324118512,,,
07.428,3.15080695,,,
07.430,2.867206212,,,
07.432,2.701772448,,,
07.434,2.953861993,,,
07.436,2.914473001,,,
07.438,3.001128783,,,
07.440,3.119295757,,,
07.442,3.095662362,,,
07.444,3.347751907,,,
07.446,3.182318143,,,
07.448,2.977495388,,,
07.450,2.615116667,,,
07.452,2.662383457,,,
07.454,2.780550431,,,
07.456,2.717528045,,,
07.458,2.772672632,,,
07.460,2.898717405,,,
07.462,2.890839607,,,
07.464,3.135051353,,,
07.466,2.977495388,,,
07.468,2.741161439,,,
07.470,2.4654385,,,
07.472,2.386660517,,,
07.474,2.615116667,,,
07.476,2.654505658,,,
07.478,2.654505658,,,
07.480,2.749039238,,,
07.482,2.812061624,,,
07.484,2.969617589,,,
07.486,2.749039238,,,
07.488,2.69389465,,,
07.490,2.363027122,,,
07.492,2.457560701,,,
07.494,2.559972079,,,
07.496,2.504827491,,,
07.498,2.591483272,,,
07.500,2.780550431,,,
07.502,2.749039238,,,
07.504,3.001128783,,,
07.506,2.835695019,,,
07.508,2.733283641,,,
07.510,2.268493543,,,
07.512,2.402416113,,,
07.514,2.520583088,,,
07.516,2.544216482,,,
07.518,2.615116667,,,
07.520,2.788428229,,,
07.522,2.756917036,,,
07.524,2.914473001,,,
07.526,2.843572817,,,
07.528,2.701772448,,,
07.530,2.252737946,,,
07.532,2.394538315,,,
07.534,2.512705289,,,
07.536,2.528460886,,,
07.538,2.607238869,,,
07.540,2.686016851,,,
07.542,2.82781722,,,
07.544,2.906595203,,,
07.546,2.780550431,,,
07.548,2.638750062,,,
07.550,2.150326569,,,
07.552,2.449682903,,,
07.554,2.496949693,,,
07.556,2.536338684,,,
07.558,2.64662786,,,
07.560,2.819939422,,,
07.562,2.930228598,,,
07.564,2.977495388,,,
07.566,2.804183826,,,
07.568,2.575727676,,,
07.570,2.173959963,,,
07.572,2.489071895,,,
07.574,2.520583088,,,
07.576,2.496949693,,,
07.578,2.686016851,,,
07.580,2.654505658,,,
07.582,2.898717405,,,
07.584,2.906595203,,,
07.586,2.686016851,,,
07.588,2.528460886,,,
07.590,2.18971556,,,
07.592,2.481194096,,,
07.594,2.496949693,,,
07.596,2.496949693,,,
07.598,2.69389465,,,
07.600,2.701772448,,,
07.602,2.890839607,,,
07.604,2.867206212,,,
07.606,2.749039238,,,
07.608,2.567849877,,,
07.610,2.260615744,,,
07.612,2.394538315,,,
07.614,2.489071895,,,
07.616,2.536338684,,,
07.618,2.686016851,,,
07.620,2.717528045,,,
07.622,2.87508401,,,
07.624,2.993250984,,,
07.626,2.764794834,,,
07.628,2.489071895,,,
07.630,2.197593358,,,
07.632,2.433927307,,,
07.634,2.528460886,,,
07.636,2.544216482,,,
07.638,2.69389465,,,
07.640,2.819939422,,,
07.642,2.969617589,,,
07.644,2.914473001,,,
07.646,2.741161439,,,
07.648,2.489071895,,,
07.650,2.276371341,,,
07.652,2.441805105,,,
07.654,2.520583088,,,
07.656,2.512705289,,,
07.658,2.733283641,,,
07.660,2.780550431,,,
07.662,2.945984195,,,
07.664,2.890839607,,,
07.666,2.686016851,,,
07.668,2.394538315,,,
07.670,2.079426384,,,
07.672,2.473316298,,,
07.674,2.473316298,,,
07.676,2.544216482,,,
07.678,2.749039238,,,
07.680,2.69389465,,,
07.682,2.859328414,,,
07.684,2.788428229,,,
07.686,2.630872263,,,
07.688,2.410293912,,,
07.690,2.18971556,,,
07.692,2.378782719,,,
07.694,2.426049508,,,
07.696,2.441805105,,,
07.698,2.552094281,,,
07.700,2.638750062,,,
07.702,2.859328414,,,
07.704,2.851450615,,,
07.706,2.69389465,,,
07.708,2.315760332,,,
07.710,2.126693174,,,
07.712,2.355149324,,,
07.714,2.402416113,,,
07.716,2.489071895,,,
07.718,2.615116667,,,
07.720,2.64662786,,,
07.722,2.835695019,,,
07.724,2.733283641,,,
07.726,2.528460886,,,
07.728,2.18971556,,,
07.730,2.047915191,,,
07.732,2.229104551,,,
07.734,2.229104551,,,
07.736,2.394538315,,,
07.738,2.536338684,,,
07.740,2.449682903,,,
07.742,2.796306027,,,
07.744,2.567849877,,,
07.746,2.41817171,,,
07.748,2.079426384,,,
07.750,2.040037393,,,
07.752,2.063670788,,,
07.754,2.205471157,,,
07.756,2.284249139,,,
07.758,2.402416113,,,
07.760,2.504827491,,,
07.762,2.638750062,,,
07.764,2.496949693,,,
07.766,2.41817171,,,
07.768,2.024281796,,,
07.770,2.063670788,,,
07.772,2.205471157,,,
07.774,2.23698235,,,
07.776,2.355149324,,,
07.778,2.276371341,,,
07.780,2.481194096,,,
07.782,2.64662786,,,
07.784,2.481194096,,,
07.786,2.457560701,,,
07.788,2.016403998,,,
07.790,2.110937577,,,
07.792,2.260615744,,,
07.794,2.307882534,,,
07.796,2.300004736,,,
07.798,2.386660517,,,
07.800,2.583605474,,,
07.802,2.591483272,,,
07.804,2.449682903,,,
07.806,2.449682903,,,
07.808,1.984892805,,,
07.810,2.173959963,,,
07.812,2.244860148,,,
07.814,2.331515929,,,
07.816,2.410293912,,,
07.818,2.615116667,,,
07.820,2.670261255,,,
07.822,2.780550431,,,
07.824,2.670261255,,,
07.826,2.512705289,,,
07.828,2.14244877,,,
07.830,2.300004736,,,
07.832,2.363027122,,,
07.834,2.449682903,,,
07.836,2.433927307,,,
07.838,2.607238869,,,
07.840,2.733283641,,,
07.842,2.741161439,,,
07.844,2.567849877,,,
07.846,2.4654385,,,
07.848,2.055792989,,,
07.850,2.307882534,,,
07.852,2.37090492,,,
07.854,2.410293912,,,
07.856,2.512705289,,,
07.858,2.552094281,,,
07.860,2.725405843,,,
07.862,2.749039238,,,
07.864,2.520583088,,,
07.866,2.363027122,,,
07.868,2.024281796,,,
07.870,2.197593358,,,
07.872,2.260615744,,,
07.874,2.284249139,,,
07.876,2.37090492,,,
07.878,2.433927307,,,
07.880,2.69389465,,,
07.882,2.615116667,,,
07.884,2.378782719,,,
07.886,2.166082165,,,
07.888,1.890359225,,,
07.890,2.118815375,,,
07.892,2.18971556,,,
07.894,2.197593358,,,
07.896,2.37090492,,,
07.898,2.378782719,,,
07.900,2.59936107,,,
07.902,2.536338684,,,
07.904,2.339393727,,,
07.906,2.18971556,,,
07.908,1.787947848,,,
07.910,2.126693174,,,
07.912,2.134570972,,,
07.914,2.14244877,,,
07.916,2.386660517,,,
07.918,2.363027122,,,
07.920,2.559972079,,,
07.922,2.583605474,,,
07.924,2.402416113,,,
07.926,2.110937577,,,
07.928,1.709169865,,,
07.930,2.024281796,,,
07.932,2.134570972,,,
07.934,2.110937577,,,
07.936,2.221226753,,,
07.938,2.18971556,,,
07.940,2.433927307,,,
07.942,2.41817171,,,
07.944,2.18971556,,,
07.946,1.921870419,,,
07.948,1.709169865,,,
07.950,2.087304182,,,
07.952,2.323638131,,,
07.954,2.575727676,,,
07.956,2.812061624,,,
07.958,3.087784564,,,
07.960,3.56045246,,,
07.962,3.702252829,,,
07.964,3.694375031,,,
07.966,3.615597048,,,
07.968,3.3792631,,,
07.970,3.670741636,,,
07.972,3.65498604,,,
07.974,3.631352645,,,
07.976,3.639230443,,,
07.978,3.536819065,,,
07.980,3.60771925,,,
07.982,3.324118512,,,
07.984,2.969617589,,,
07.986,2.567849877,,,
07.988,2.126693174,,,
07.990,2.276371341,,,
07.992,2.276371341,,,
07.994,2.260615744,,,
07.996,2.315760332,,,
07.998,2.331515929,,,
08.000,2.512705289,,,
08.002,2.394538315,,,
08.004,2.244860148,,,
08.006,2.055792989,,,
08.008,1.866725831,,,
08.010,2.016403998,,,
08.012,2.134570972,,,
08.014,2.23698235,,,
08.016,2.441805105,,,
08.018,2.402416113,,,
08.020,2.607238869,,,
08.022,2.512705289,,,
08.024,2.37090492,,,
08.026,2.126693174,,,
08.028,2.071548586,,,
08.030,2.221226753,,,
08.032,2.300004736,,,
08.034,2.339393727,,,
08.036,2.426049508,,,
08.038,2.496949693,,,
08.040,2.670261255,,,
08.042,2.575727676,,,
08.044,2.363027122,,,
08.046,2.134570972,,,
08.048,2.024281796,,,
08.050,2.166082165,,,
08.052,2.260615744,,,
08.054,2.23698235,,,
08.056,2.528460886,,,
08.058,2.575727676,,,
08.060,2.772672632,,,
08.062,2.496949693,,,
08.064,2.457560701,,,
08.066,2.095181981,,,
08.068,2.126693174,,,
08.070,2.307882534,,,
08.072,2.355149324,,,
08.074,2.426049508,,,
08.076,2.481194096,,,
08.078,2.559972079,,,
08.080,2.756917036,,,
08.082,2.567849877,,,
08.084,2.504827491,,,
08.086,2.166082165,,,
08.088,2.221226753,,,
08.090,2.331515929,,,
08.092,2.378782719,,,
08.094,2.363027122,,,
08.096,2.591483272,,,
08.098,2.686016851,,,
08.100,2.819939422,,,
08.102,2.638750062,,,
08.104,2.481194096,,,
08.106,2.103059779,,,
08.108,2.355149324,,,
08.110,2.402416113,,,
08.112,2.433927307,,,
08.114,2.544216482,,,
08.116,2.615116667,,,
08.118,2.725405843,,,
08.120,2.812061624,,,
08.122,2.59936107,,,
08.124,2.567849877,,,
08.126,2.173959963,,,
08.128,2.347271526,,,
08.130,2.441805105,,,
08.132,2.473316298,,,
08.134,2.591483272,,,
08.136,2.733283641,,,
08.138,2.812061624,,,
08.140,2.867206212,,,
08.142,2.654505658,,,
08.144,2.567849877,,,
08.146,2.18971556,,,
08.148,2.441805105,,,
08.150,2.410293912,,,
08.152,2.512705289,,,
08.154,2.670261255,,,
08.156,2.678139053,,,
08.158,2.867206212,,,
08.160,2.930228598,,,
08.162,2.717528045,,,
08.164,2.615116667,,,
08.166,2.244860148,,,
08.168,2.457560701,,,
08.170,2.615116667,,,
08.172,2.591483272,,,
08.174,2.741161439,,,
08.176,2.819939422,,,
08.178,2.945984195,,,
08.180,2.961739791,,,
08.182,2.859328414,,,
08.184,2.686016851,,,
08.186,2.260615744,,,
08.188,2.489071895,,,
08.190,2.622994465,,,
08.192,2.796306027,,,
08.194,2.835695019,,,
08.196,2.788428229,,,
08.198,3.064151169,,,
08.200,3.032639976,,,
08.202,2.906595203,,,
08.204,2.64662786,,,
08.206,2.331515929,,,
08.208,2.591483272,,,
08.210,2.607238869,,,
08.212,2.701772448,,,
08.214,2.851450615,,,
08.216,2.898717405,,,
08.218,3.087784564,,,
08.220,2.985373186,,,
08.222,2.796306027,,,
08.224,2.567849877,,,
08.226,2.315760332,,,
08.228,2.504827491,,,
08.230,2.583605474,,,
08.232,2.575727676,,,
08.234,2.69389465,,,
08.236,2.733283641,,,
08.238,2.961739791,,,
08.240,2.969617589,,,
08.242,2.615116667,,,
08.244,2.473316298,,,
08.246,2.181837762,,,
08.248,2.347271526,,,
08.250,2.426049508,,,
08.252,2.449682903,,,
08.254,2.536338684,,,
08.256,2.630872263,,,
08.258,2.9223508,,,
08.260,2.749039238,,,
08.262,2.520583088,,,
08.264,2.410293912,,,
08.266,2.047915191,,,
08.268,2.347271526,,,
08.270,2.307882534,,,
08.272,2.355149324,,,
08.274,2.520583088,,,
08.276,2.544216482,,,
08.278,2.780550431,,,
08.280,2.69389465,,,
08.282,2.528460886,,,
08.284,2.181837762,,,
08.286,2.071548586,,,
08.288,2.173959963,,,
08.290,2.252737946,,,
08.292,2.315760332,,,
08.294,2.449682903,,,
08.296,2.363027122,,,
08.298,2.772672632,,,
08.300,2.654505658,,,
08.302,2.347271526,,,
08.304,2.095181981,,,
08.306,1.929748217,,,
08.308,2.150326569,,,
08.310,2.197593358,,,
08.312,2.244860148,,,
08.314,2.386660517,,,
08.316,2.355149324,,,
08.318,2.591483272,,,
08.320,2.504827491,,,
08.322,2.355149324,,,
08.324,2.032159594,,,
08.326,1.984892805,,,
08.328,2.18971556,,,
08.330,2.158204367,,,
08.332,2.244860148,,,
08.334,2.315760332,,,
08.336,2.449682903,,,
08.338,2.654505658,,,
08.340,2.441805105,,,
08.342,2.292126938,,,
08.344,2.024281796,,,
08.346,2.032159594,,,
08.348,2.158204367,,,
08.350,2.095181981,,,
08.352,2.229104551,,,
08.354,2.323638131,,,
08.356,2.426049508,,,
08.358,2.678139053,,,
08.360,2.4654385,,,
08.362,2.252737946,,,
08.364,2.016403998,,,
08.366,1.992770603,,,
08.368,2.166082165,,,
08.370,2.181837762,,,
08.372,2.229104551,,,
08.374,2.363027122,,,
08.376,2.394538315,,,
08.378,2.583605474,,,
08.380,2.355149324,,,
08.382,2.315760332,,,
08.384,1.969137208,,,
08.386,2.016403998,,,
08.388,2.14244877,,,
08.390,2.213348955,,,
08.392,2.252737946,,,
08.394,2.41817171,,,
08.396,2.528460886,,,
08.398,2.575727676,,,
08.400,2.433927307,,,
08.402,2.331515929,,,
08.404,1.91399262,,,
08.406,1.984892805,,,
08.408,2.173959963,,,
08.410,2.213348955,,,
08.412,2.292126938,,,
08.414,2.331515929,,,
08.416,2.504827491,,,
08.418,2.583605474,,,
08.420,2.402416113,,,
08.422,2.292126938,,,
08.424,1.929748217,,,
08.426,2.150326569,,,
08.428,2.268493543,,,
08.430,2.197593358,,,
08.432,2.347271526,,,
08.434,2.363027122,,,
08.436,2.64662786,,,
08.438,2.615116667,,,
08.440,2.41817171,,,
08.442,2.268493543,,,
08.444,1.906114822,,,
08.446,2.14244877,,,
08.448,2.158204367,,,
08.450,2.213348955,,,
08.452,2.457560701,,,
08.454,2.441805105,,,
08.456,2.615116667,,,
08.458,2.64662786,,,
08.460,2.410293912,,,
08.462,2.276371341,,,
08.464,1.96125941,,,
08.466,2.181837762,,,
08.468,2.268493543,,,
08.470,2.307882534,,,
08.472,2.441805105,,,
08.474,2.402416113,,,
08.476,2.615116667,,,
08.478,2.622994465,,,
08.480,2.426049508,,,
08.482,2.229104551,,,
08.484,1.945503813,,,
08.486,2.110937577,,,
08.488,2.284249139,,,
08.490,2.315760332,,,
08.492,2.4654385,,,
08.494,2.512705289,,,
08.496,2.756917036,,,
08.498,2.749039238,,,
08.500,2.489071895,,,