Time (s),Signal (V),Peak Time (s) ,Sample #,Type
00.000,1.825678443,00.774,387,N
00.002,1.690709755,01.026,513,t
00.004,1.525748026,01.572,786,N
00.006,1.675713235,01.812,906,t
00.008,2.020633213,02.446,1223,N
00.010,2.470528837,02.694,1347,t
00.012,2.245581025,03.516,1758,N
00.014,2.395546233,03.760,1880,t
00.016,2.215587984,04.628,2314,N
00.018,2.170598421,04.874,2437,t
00.020,1.540744547,05.668,2834,N
00.022,1.420772381,05.916,2958,t
00.024,1.495754985,06.682,3341,N
00.026,1.765692359,06.940,3470,t
00.028,2.065622776,07.686,3843,N
00.030,2.380549712,07.936,3968,t
00.032,2.425539275,08.664,4332,N
00.034,2.560507962,08.914,4457,t
00.036,2.33556015,09.544,4772,N
00.038,2.350556671,09.786,4893,t
00.040,1.735699318,,,
00.042,1.495754985,,,
00.044,1.375782818,,,
00.046,1.480758464,,,
00.048,1.900661047,,,
00.050,2.410542754,,,
00.052,2.905427941,,,
00.054,2.830445337,,,
00.056,2.590501004,,,
00.058,2.455532317,,,
00.060,1.96064713,,,
00.062,1.540744547,,,
00.064,1.900661047,,,
00.066,1.990640171,,,
00.068,2.245581025,,,
00.070,2.425539275,,,
00.072,2.725469691,,,
00.074,2.605497525,,,
00.076,2.410542754,,,
00.078,2.245581025,,,
00.080,1.915657567,,,
00.082,1.630723672,,,
00.084,1.615727151,,,
00.086,1.825678443,,,
00.088,2.200591463,,,
00.090,2.590501004,,,
00.092,2.770459253,,,
00.094,2.965414024,,,
00.096,2.575504483,,,
00.098,2.095615817,,,
00.100,1.810681922,,,
00.102,1.915657567,,,
00.104,1.765692359,,,
00.106,2.215587984,,,
00.108,2.320563629,,,
00.110,2.485525358,,,
00.112,2.620494045,,,
00.114,2.530514921,,,
00.116,2.470528837,,,
00.118,2.980410545,,,
00.120,2.560507962,,,
00.122,2.095615817,,,
00.124,1.660716714,,,
00.126,2.260577546,,,
00.128,2.665483608,,,
00.130,3.160368794,,,
00.132,3.460299211,,,
00.134,2.860438378,,,
00.136,2.755462733,,,
00.138,2.5155184,,,
00.140,2.020633213,,,
00.142,1.975643651,,,
00.144,2.245581025,,,
00.146,2.33556015,,,
00.148,2.785455774,,,
00.150,3.145372274,,,
00.152,3.310334003,,,
00.154,3.220354878,,,
00.156,3.44530269,,,
00.158,2.950417503,,,
00.160,2.650487087,,,
00.162,2.605497525,,,
00.164,2.785455774,,,
00.166,2.860438378,,,
00.168,3.490292252,,,
00.170,3.670250502,,,
00.172,3.970180918,,,
00.174,4.090153084,,,
00.176,3.565274856,,,
00.178,2.920424462,,,
00.180,2.89043142,,,
00.182,3.100382711,,,
00.184,3.535281815,,,
00.186,3.775226148,,,
00.188,4.045163522,,,
00.190,3.685247023,,,
00.192,3.460299211,,,
00.194,3.64025746,,,
00.196,3.580271377,,,
00.198,3.220354878,,,
00.200,3.190361836,,,
00.202,3.235351398,,,
00.204,3.340327044,,,
00.206,3.160368794,,,
00.208,3.700243543,,,
00.210,3.910194835,,,
00.212,4.345093938,,,
00.214,4.150139168,,,
00.216,3.805219189,,,
00.218,3.07038967,,,
00.220,3.145372274,,,
00.222,2.905427941,,,
00.224,3.145372274,,,
00.226,3.385316607,,,
00.228,3.805219189,,,
00.230,3.775226148,,,
00.232,3.64025746,,,
00.234,3.355323565,,,
00.236,3.235351398,,,
00.238,2.905427941,,,
00.240,2.980410545,,,
00.242,2.320563629,,,
00.244,2.230584504,,,
00.246,2.365553192,,,
00.248,2.725469691,,,
00.250,2.920424462,,,
00.252,3.325330523,,,
00.254,2.800452295,,,
00.256,2.635490566,,,
00.258,2.380549712,,,
00.260,2.230584504,,,
00.262,2.245581025,,,
00.264,2.1556019,,,
00.266,2.215587984,,,
00.268,2.635490566,,,
00.270,2.905427941,,,
00.272,2.725469691,,,
00.274,2.605497525,,,
00.276,2.740466212,,,
00.278,2.470528837,,,
00.280,2.050626255,,,
00.282,1.735699318,,,
00.284,1.96064713,,,
00.286,2.230584504,,,
00.288,2.530514921,,,
00.290,2.875434899,,,
00.292,2.935420982,,,
00.294,2.425539275,,,
00.296,2.350556671,,,
00.298,1.885664526,,,
00.300,1.735699318,,,
00.302,1.855671484,,,
00.304,1.96064713,,,
00.306,2.035629734,,,
00.308,2.425539275,,,
00.310,2.755462733,,,
00.312,2.845441857,,,
00.314,2.665483608,,,
00.316,2.680480129,,,
00.318,2.500521879,,,
00.320,2.080619296,,,
00.322,2.035629734,,,
00.324,2.245581025,,,
00.326,2.065622776,,,
00.328,2.410542754,,,
00.330,2.380549712,,,
00.332,2.650487087,,,
00.334,2.635490566,,,
00.336,2.050626255,,,
00.338,1.660716714,,,
00.340,1.825678443,,,
00.342,1.690709755,,,
00.344,1.900661047,,,
00.346,2.275574067,,,
00.348,2.425539275,,,
00.350,2.755462733,,,
00.352,3.205358357,,,
00.354,2.830445337,,,
00.356,2.275574067,,,
00.358,1.840674963,,,
00.360,1.570737589,,,
00.362,1.630723672,,,
00.364,2.245581025,,,
00.366,2.080619296,,,
00.368,2.695476649,,,
00.370,2.725469691,,,
00.372,2.635490566,,,
00.374,2.320563629,,,
00.376,2.245581025,,,
00.378,2.125608859,,,
00.380,1.795685401,,,
00.382,1.58573411,,,
00.384,1.765692359,,,
00.386,2.020633213,,,
00.388,2.71047317,,,
00.390,2.770459253,,,
00.392,2.905427941,,,
00.394,2.500521879,,,
00.396,2.350556671,,,
00.398,2.050626255,,,
00.400,1.675713235,,,
00.402,1.765692359,,,
00.404,1.870668005,,,
00.406,2.095615817,,,
00.408,2.590501004,,,
00.410,3.010403586,,,
00.412,2.530514921,,,
00.414,2.635490566,,,
00.416,2.245581025,,,
00.418,2.14060538,,,
00.420,2.125608859,,,
00.422,1.930654088,,,
00.424,1.705706276,,,
00.426,2.230584504,,,
00.428,2.455532317,,,
00.430,2.545511441,,,
00.432,2.785455774,,,
00.434,2.725469691,,,
00.436,2.080619296,,,
00.438,1.705706276,,,
00.440,1.675713235,,,
00.442,1.510751506,,,
00.444,1.690709755,,,
00.446,2.005636692,,,
00.448,2.71047317,,,
00.450,2.845441857,,,
00.452,2.590501004,,,
00.454,2.545511441,,,
00.456,2.125608859,,,
00.458,1.765692359,,,
00.460,1.120841965,,,
00.462,1.840674963,,,
00.464,2.470528837,,,
00.466,1.96064713,,,
00.468,2.230584504,,,
00.470,2.470528837,,,
00.472,3.235351398,,,
00.474,2.530514921,,,
00.476,2.380549712,,,
00.478,1.40577586,,,
00.480,1.345789777,,,
00.482,2.33556015,,,
00.484,1.810681922,,,
00.486,2.245581025,,,
00.488,3.055393149,,,
00.490,2.650487087,,,
00.492,3.055393149,,,
00.494,2.320563629,,,
00.496,2.050626255,,,
00.498,2.080619296,,,
00.500,1.900661047,,,
00.502,1.96064713,,,
00.504,1.645720193,,,
00.506,2.14060538,,,
00.508,2.740466212,,,
00.510,2.860438378,,,
00.512,2.665483608,,,
00.514,2.440535796,,,
00.516,1.990640171,,,
00.518,1.765692359,,,
00.520,1.765692359,,,
00.522,1.885664526,,,
00.524,2.200591463,,,
00.526,2.545511441,,,
00.528,2.920424462,,,
00.530,2.860438378,,,
00.532,2.800452295,,,
00.534,2.230584504,,,
00.536,1.795685401,,,
00.538,1.900661047,,,
00.540,1.930654088,,,
00.542,2.305567108,,,
00.544,2.125608859,,,
00.546,2.455532317,,,
00.548,2.770459253,,,
00.550,2.89043142,,,
00.552,2.560507962,,,
00.554,2.290570588,,,
00.556,1.855671484,,,
00.558,1.630723672,,,
00.560,1.825678443,,,
00.562,1.690709755,,,
00.564,1.990640171,,,
00.566,2.665483608,,,
00.568,2.830445337,,,
00.570,2.500521879,,,
00.572,2.485525358,,,
00.574,2.590501004,,,
00.576,2.185594942,,,
00.578,1.615727151,,,
00.580,1.855671484,,,
00.582,2.1556019,,,
00.584,2.215587984,,,
00.586,2.680480129,,,
00.588,2.965414024,,,
00.590,3.010403586,,,
00.592,2.920424462,,,
00.594,2.725469691,,,
00.596,2.080619296,,,
00.598,1.660716714,,,
00.600,2.005636692,,,
00.602,2.185594942,,,
00.604,2.290570588,,,
00.606,2.950417503,,,
00.608,3.160368794,,,
00.610,3.295337482,,,
00.612,3.625260939,,,
00.614,2.995407066,,,
00.616,2.200591463,,,
00.618,1.735699318,,,
00.620,1.810681922,,,
00.622,1.900661047,,,
00.624,2.605497525,,,
00.626,2.950417503,,,
00.628,2.920424462,,,
00.630,2.860438378,,,
00.632,3.115379232,,,
00.634,2.725469691,,,
00.636,2.365553192,,,
00.638,2.14060538,,,
00.640,2.065622776,,,
00.642,2.1556019,,,
00.644,2.440535796,,,
00.646,3.025400107,,,
00.648,3.280340961,,,
00.650,2.845441857,,,
00.652,2.605497525,,,
00.654,2.33556015,,,
00.656,1.885664526,,,
00.658,1.645720193,,,
00.660,1.675713235,,,
00.662,1.855671484,,,
00.664,2.110612338,,,
00.666,2.545511441,,,
00.668,2.725469691,,,
00.670,2.875434899,,,
00.672,2.575504483,,,
00.674,2.425539275,,,
00.676,2.110612338,,,
00.678,1.690709755,,,
00.680,2.065622776,,,
00.682,2.050626255,,,
00.684,2.245581025,,,
00.686,2.71047317,,,
00.688,3.055393149,,,
00.690,2.725469691,,,
00.692,2.245581025,,,
00.694,2.050626255,,,
00.696,1.735699318,,,
00.698,1.555741068,,,
00.700,1.525748026,,,
00.702,1.840674963,,,
00.704,2.14060538,,,
00.706,2.575504483,,,
00.708,2.935420982,,,
00.710,3.08538619,,,
00.712,2.725469691,,,
00.714,2.275574067,,,
00.716,1.915657567,,,
00.718,1.78068888,,,
00.720,1.900661047,,,
00.722,1.555741068,,,
00.724,2.290570588,,,
00.726,2.785455774,,,
00.728,2.845441857,,,
00.730,2.680480129,,,
00.732,2.470528837,,,
00.734,2.320563629,,,
00.736,1.975643651,,,
00.738,1.720702797,,,
00.740,1.60073063,,,
00.742,2.035629734,,,
00.744,2.365553192,,,
00.746,2.71047317,,,
00.748,2.800452295,,,
00.750,2.830445337,,,
00.752,2.755462733,,,
00.754,2.125608859,,,
00.756,2.215587984,,,
00.758,2.290570588,,,
00.760,2.455532317,,,
00.762,2.695476649,,,
00.764,3.220354878,,,
00.766,3.520285294,,,
00.768,3.805219189,,,
00.770,4.315100897,,,
00.772,4.450069584,,,
00.774,3.760229627,,,
00.776,3.505288773,,,
00.778,3.190361836,,,
00.780,3.310334003,,,
00.782,2.605497525,,,
00.784,3.190361836,,,
00.786,2.560507962,,,
00.788,2.665483608,,,
00.790,2.680480129,,,
00.792,2.095615817,,,
00.794,1.315796735,,,
00.796,0.865901111,,,
00.798,0.85090459,,,
00.800,1.03086284,,,
00.802,1.345789777,,,
00.804,1.60073063,,,
00.806,2.050626255,,,
00.808,2.260577546,,,
00.810,2.455532317,,,
00.812,2.320563629,,,
00.814,1.615727151,,,
00.816,1.150835006,,,
00.818,1.330793256,,,
00.820,1.825678443,,,
00.822,2.170598421,,,
00.824,2.455532317,,,
00.826,2.680480129,,,
00.828,2.635490566,,,
00.830,2.680480129,,,
00.832,2.605497525,,,
00.834,2.320563629,,,
00.836,1.870668005,,,
00.838,1.825678443,,,
00.840,1.855671484,,,
00.842,2.1556019,,,
00.844,2.845441857,,,
00.846,3.190361836,,,
00.848,2.725469691,,,
00.850,2.410542754,,,
00.852,2.575504483,,,
00.854,2.33556015,,,
00.856,1.96064713,,,
00.858,1.840674963,,,
00.860,2.020633213,,,
00.862,2.245581025,,,
00.864,2.785455774,,,
00.866,3.08538619,,,
00.868,2.965414024,,,
00.870,2.815448816,,,
00.872,2.560507962,,,
00.874,2.245581025,,,
00.876,2.14060538,,,
00.878,2.215587984,,,
00.880,2.125608859,,,
00.882,2.215587984,,,
00.884,2.770459253,,,
00.886,3.175365315,,,
00.888,3.025400107,,,
00.890,2.920424462,,,
00.892,3.07038967,,,
00.894,2.545511441,,,
00.896,2.320563629,,,
00.898,2.125608859,,,
00.900,2.245581025,,,
00.902,2.290570588,,,
00.904,2.5155184,,,
00.906,3.130375753,,,
00.908,3.100382711,,,
00.910,2.920424462,,,
00.912,2.800452295,,,
00.914,2.33556015,,,
00.916,2.1556019,,,
00.918,2.005636692,,,
00.920,2.275574067,,,
00.922,2.455532317,,,
00.924,3.44530269,,,
00.926,3.325330523,,,
00.928,3.460299211,,,
00.930,3.160368794,,,
00.932,2.950417503,,,
00.934,2.485525358,,,
00.936,2.080619296,,,
00.938,1.945650609,,,
00.940,2.410542754,,,
00.942,2.5155184,,,
00.944,2.860438378,,,
00.946,3.08538619,,,
00.948,3.26534444,,,
00.950,3.385316607,,,
00.952,2.860438378,,,
00.954,2.575504483,,,
00.956,2.830445337,,,
00.958,2.5155184,,,
00.960,2.920424462,,,
00.962,3.07038967,,,
00.964,3.44530269,,,
00.966,3.805219189,,,
00.968,3.400313127,,,
00.970,3.415309648,,,
00.972,3.44530269,,,
00.974,3.145372274,,,
00.976,3.160368794,,,
00.978,3.040396628,,,
00.980,2.935420982,,,
00.982,3.010403586,,,
00.984,3.670250502,,,
00.986,3.865205272,,,
00.988,4.180132209,,,
00.990,4.135142647,,,
00.992,3.355323565,,,
00.994,3.295337482,,,
00.996,3.250347919,,,
00.998,3.655253981,,,
01.000,3.145372274,,,
01.002,3.730236585,,,
01.004,4.270111334,,,
01.006,4.585038271,,,
01.008,4.660020875,,,
01.010,4.150139168,,,
01.012,3.895198314,,,
01.014,3.64025746,,,
01.016,3.535281815,,,
01.018,3.505288773,,,
01.020,3.805219189,,,
01.022,4.165135689,,,
01.024,4.180132209,,,
01.026,4.510055667,,,
01.028,4.390083501,,,
01.030,4.19512873,,,
01.032,3.82021571,,,
01.034,3.790222668,,,
01.036,3.44530269,,,
01.038,3.370320086,,,
01.040,3.280340961,,,
01.042,3.805219189,,,
01.044,4.19512873,,,
01.046,4.345093938,,,
01.048,4.330097417,,,
01.050,3.940187876,,,
01.052,3.355323565,,,
01.054,3.295337482,,,
01.056,2.815448816,,,
01.058,2.530514921,,,
01.060,2.950417503,,,
01.062,3.295337482,,,
01.064,3.550278335,,,
01.066,3.595267898,,,
01.068,3.565274856,,,
01.070,3.160368794,,,
01.072,2.875434899,,,
01.074,2.470528837,,,
01.076,2.725469691,,,
01.078,2.320563629,,,
01.080,2.755462733,,,
01.082,2.950417503,,,
01.084,3.280340961,,,
01.086,3.190361836,,,
01.088,3.295337482,,,
01.090,3.055393149,,,
01.092,2.785455774,,,
01.094,2.5155184,,,
01.096,2.1556019,,,
01.098,2.095615817,,,
01.100,2.365553192,,,
01.102,3.205358357,,,
01.104,3.100382711,,,
01.106,2.995407066,,,
01.108,2.950417503,,,
01.110,2.995407066,,,
01.112,2.455532317,,,
01.114,2.005636692,,,
01.116,2.200591463,,,
01.118,1.945650609,,,
01.120,2.170598421,,,
01.122,2.680480129,,,
01.124,2.950417503,,,
01.126,3.220354878,,,
01.128,3.07038967,,,
01.130,2.725469691,,,
01.132,2.33556015,,,
01.134,2.1556019,,,
01.136,2.320563629,,,
01.138,2.470528837,,,
01.140,2.815448816,,,
01.142,3.010403586,,,
01.144,3.115379232,,,
01.146,3.130375753,,,
01.148,3.115379232,,,
01.150,2.950417503,,,
01.152,2.785455774,,,
01.154,2.260577546,,,
01.156,2.065622776,,,
01.158,2.095615817,,,
01.160,2.350556671,,,
01.162,2.590501004,,,
01.164,3.07038967,,,
01.166,3.130375753,,,
01.168,3.055393149,,,
01.170,2.755462733,,,
01.172,2.470528837,,,
01.174,2.290570588,,,
01.176,2.14060538,,,
01.178,2.170598421,,,
01.180,2.500521879,,,
01.182,3.460299211,,,
01.184,3.325330523,,,
01.186,3.025400107,,,
01.188,2.965414024,,,
01.190,2.800452295,,,
01.192,2.740466212,,,
01.194,2.350556671,,,
01.196,1.885664526,,,
01.198,2.275574067,,,
01.200,2.605497525,,,
01.202,2.950417503,,,
01.204,3.280340961,,,
01.206,3.250347919,,,
01.208,2.995407066,,,
01.210,2.845441857,,,
01.212,2.410542754,,,
01.214,2.200591463,,,
01.216,2.110612338,,,
01.218,2.305567108,,,
01.220,2.500521879,,,
01.222,3.130375753,,,
01.224,2.725469691,,,
01.226,3.025400107,,,
01.228,2.980410545,,,
01.230,2.650487087,,,
01.232,2.320563629,,,
01.234,2.410542754,,,
01.236,2.290570588,,,
01.238,2.185594942,,,
01.240,2.605497525,,,
01.242,2.575504483,,,
01.244,2.620494045,,,
01.246,2.800452295,,,
01.248,2.935420982,,,
01.250,2.500521879,,,
01.252,2.350556671,,,
01.254,2.14060538,,,
01.256,2.065622776,,,
01.258,2.065622776,,,
01.260,2.380549712,,,
01.262,2.740466212,,,
01.264,3.220354878,,,
01.266,3.235351398,,,
01.268,3.295337482,,,
01.270,2.680480129,,,
01.272,2.245581025,,,
01.274,2.245581025,,,
01.276,2.035629734,,,
01.278,2.14060538,,,
01.280,2.350556671,,,
01.282,2.605497525,,,
01.284,2.860438378,,,
01.286,3.130375753,,,
01.288,2.905427941,,,
01.290,2.725469691,,,
01.292,2.275574067,,,
01.294,1.78068888,,,
01.296,1.900661047,,,
01.298,2.035629734,,,
01.300,2.650487087,,,
01.302,3.145372274,,,
01.304,2.965414024,,,
01.306,3.205358357,,,
01.308,3.130375753,,,
01.310,2.545511441,,,
01.312,2.095615817,,,
01.314,2.005636692,,,
01.316,2.080619296,,,
01.318,2.380549712,,,
01.320,2.425539275,,,
01.322,3.025400107,,,
01.324,3.010403586,,,
01.326,3.025400107,,,
01.328,2.755462733,,,
01.330,2.470528837,,,
01.332,2.065622776,,,
01.334,2.305567108,,,
01.336,1.840674963,,,
01.338,1.690709755,,,
01.340,2.605497525,,,
01.342,3.07038967,,,
01.344,3.130375753,,,
01.346,3.145372274,,,
01.348,2.860438378,,,
01.350,2.33556015,,,
01.352,2.350556671,,,
01.354,1.975643651,,,
01.356,2.095615817,,,
01.358,2.095615817,,,
01.360,2.590501004,,,
01.362,3.115379232,,,
01.364,2.995407066,,,
01.366,3.100382711,,,
01.368,3.115379232,,,
01.370,2.935420982,,,
01.372,2.365553192,,,
01.374,2.185594942,,,
01.376,2.020633213,,,
01.378,2.260577546,,,
01.380,2.530514921,,,
01.382,2.89043142,,,
01.384,2.935420982,,,
01.386,2.740466212,,,
01.388,2.71047317,,,
01.390,2.260577546,,,
01.392,2.050626255,,,
01.394,2.020633213,,,
01.396,1.96064713,,,
01.398,2.230584504,,,
01.400,3.370320086,,,
01.402,3.580271377,,,
01.404,3.08538619,,,
01.406,2.995407066,,,
01.408,3.025400107,,,
01.410,2.590501004,,,
01.412,2.440535796,,,
01.414,2.305567108,,,
01.416,2.440535796,,,
01.418,2.605497525,,,
01.420,2.650487087,,,
01.422,3.08538619,,,
01.424,3.040396628,,,
01.426,2.905427941,,,
01.428,2.905427941,,,
01.430,2.755462733,,,
01.432,2.605497525,,,
01.434,2.590501004,,,
01.436,2.33556015,,,
01.438,2.620494045,,,
01.440,2.920424462,,,
01.442,2.845441857,,,
01.444,3.08538619,,,
01.446,2.905427941,,,
01.448,2.815448816,,,
01.450,2.275574067,,,
01.452,2.1556019,,,
01.454,2.275574067,,,
01.456,2.33556015,,,
01.458,2.260577546,,,
01.460,2.395546233,,,
01.462,2.980410545,,,
01.464,2.875434899,,,
01.466,2.860438378,,,
01.468,2.665483608,,,
01.470,2.950417503,,,
01.472,2.245581025,,,
01.474,1.840674963,,,
01.476,1.96064713,,,
01.478,2.200591463,,,
01.480,2.665483608,,,
01.482,2.830445337,,,
01.484,2.995407066,,,
01.486,2.755462733,,,
01.488,2.830445337,,,
01.490,2.14060538,,,
01.492,2.200591463,,,
01.494,2.035629734,,,
01.496,2.200591463,,,
01.498,2.365553192,,,
01.500,2.770459253,,,
01.502,3.055393149,,,
01.504,3.280340961,,,
01.506,2.875434899,,,
01.508,2.845441857,,,
01.510,2.320563629,,,
01.512,2.14060538,,,
01.514,1.885664526,,,
01.516,2.035629734,,,
01.518,2.425539275,,,
01.520,2.470528837,,,
01.522,2.800452295,,,
01.524,2.905427941,,,
01.526,2.740466212,,,
01.528,2.560507962,,,
01.530,2.215587984,,,
01.532,1.915657567,,,
01.534,1.870668005,,,
01.536,2.185594942,,,
01.538,2.410542754,,,
01.540,2.830445337,,,
01.542,2.905427941,,,
01.544,2.830445337,,,
01.546,3.565274856,,,
01.548,2.830445337,,,
01.550,2.110612338,,,
01.552,2.005636692,,,
01.554,2.080619296,,,
01.556,2.695476649,,,
01.558,2.950417503,,,
01.560,3.385316607,,,
01.562,3.64025746,,,
01.564,4.00017396,,,
01.566,4.315100897,,,
01.568,4.19512873,,,
01.570,4.030167001,,,
01.572,3.685247023,,,
01.574,3.565274856,,,
01.576,3.850208752,,,
01.578,3.235351398,,,
01.580,3.175365315,,,
01.582,3.130375753,,,
01.584,2.755462733,,,
01.586,2.545511441,,,
01.588,2.200591463,,,
01.590,1.555741068,,,
01.592,1.090848923,,,
01.594,1.120841965,,,
01.596,1.375782818,,,
01.598,1.825678443,,,
01.600,2.125608859,,,
01.602,2.320563629,,,
01.604,2.365553192,,,
01.606,2.395546233,,,
01.608,2.050626255,,,
01.610,2.080619296,,,
01.612,1.900661047,,,
01.614,1.285803694,,,
01.616,1.900661047,,,
01.618,2.455532317,,,
01.620,2.680480129,,,
01.622,3.160368794,,,
01.624,2.935420982,,,
01.626,2.920424462,,,
01.628,2.470528837,,,
01.630,2.185594942,,,
01.632,2.065622776,,,
01.634,2.065622776,,,
01.636,2.290570588,,,
01.638,2.575504483,,,
01.640,2.71047317,,,
01.642,3.07038967,,,
01.644,3.115379232,,,
01.646,2.635490566,,,
01.648,2.620494045,,,
01.650,2.740466212,,,
01.652,2.455532317,,,
01.654,2.755462733,,,
01.656,2.530514921,,,
01.658,2.590501004,,,
01.660,2.800452295,,,
01.662,2.935420982,,,
01.664,2.89043142,,,
01.666,2.740466212,,,
01.668,2.290570588,,,
01.670,2.185594942,,,
01.672,1.885664526,,,
01.674,2.095615817,,,
01.676,2.200591463,,,
01.678,2.755462733,,,
01.680,3.235351398,,,
01.682,3.055393149,,,
01.684,3.025400107,,,
01.686,2.755462733,,,
01.688,2.545511441,,,
01.690,2.5155184,,,
01.692,2.185594942,,,
01.694,2.095615817,,,
01.696,2.320563629,,,
01.698,2.71047317,,,
01.700,2.815448816,,,
01.702,3.385316607,,,
01.704,3.055393149,,,
01.706,3.115379232,,,
01.708,2.575504483,,,
01.710,2.095615817,,,
01.712,2.080619296,,,
01.714,2.230584504,,,
01.716,2.71047317,,,
01.718,3.025400107,,,
01.720,3.07038967,,,
01.722,3.520285294,,,
01.724,3.325330523,,,
01.726,3.160368794,,,
01.728,3.115379232,,,
01.730,2.455532317,,,
01.732,2.050626255,,,
01.734,2.245581025,,,
01.736,2.575504483,,,
01.738,2.995407066,,,
01.740,3.26534444,,,
01.742,3.400313127,,,
01.744,3.295337482,,,
01.746,2.980410545,,,
01.748,2.590501004,,,
01.750,2.500521879,,,
01.752,2.605497525,,,
01.754,2.770459253,,,
01.756,2.905427941,,,
01.758,3.280340961,,,
01.760,3.685247023,,,
01.762,3.595267898,,,
01.764,3.505288773,,,
01.766,3.340327044,,,
01.768,2.800452295,,,
01.770,2.860438378,,,
01.772,2.635490566,,,
01.774,2.89043142,,,
01.776,3.220354878,,,
01.778,3.850208752,,,
01.780,3.775226148,,,
01.782,4.150139168,,,
01.784,3.925191356,,,
01.786,3.895198314,,,
01.788,3.370320086,,,
01.790,3.250347919,,,
01.792,3.475295731,,,
01.794,3.385316607,,,
01.796,3.670250502,,,
01.798,4.060160043,,,
01.800,4.045163522,,,
01.802,4.495059146,,,
01.804,4.315100897,,,
01.806,4.150139168,,,
01.808,3.610264419,,,
01.810,3.325330523,,,
01.812,3.835212231,,,
01.814,3.565274856,,,
01.816,3.760229627,,,
01.818,4.090153084,,,
01.820,4.420076542,,,
01.822,4.57004175,,,
01.824,4.270111334,,,
01.826,3.940187876,,,
01.828,3.835212231,,,
01.830,3.625260939,,,
01.832,3.520285294,,,
01.834,3.730236585,,,
01.836,3.685247023,,,
01.838,3.745233106,,,
01.840,4.315100897,,,
01.842,4.00017396,,,
01.844,4.030167001,,,
01.846,3.685247023,,,
01.848,3.295337482,,,
01.850,2.845441857,,,
01.852,2.875434899,,,
01.854,3.160368794,,,
01.856,3.205358357,,,
01.858,3.430306169,,,
01.860,3.505288773,,,
01.862,3.520285294,,,
01.864,3.385316607,,,
01.866,3.415309648,,,
01.868,3.130375753,,,
01.870,3.08538619,,,
01.872,2.785455774,,,
01.874,2.770459253,,,
01.876,2.290570588,,,
01.878,2.545511441,,,
01.880,3.280340961,,,
01.882,3.115379232,,,
01.884,3.175365315,,,
01.886,2.71047317,,,
01.888,2.33556015,,,
01.890,2.230584504,,,
01.892,2.455532317,,,
01.894,2.500521879,,,
01.896,2.770459253,,,
01.898,3.010403586,,,
01.900,3.235351398,,,
01.902,3.07038967,,,
01.904,3.040396628,,,
01.906,2.920424462,,,
01.908,2.575504483,,,
01.910,1.690709755,,,
01.912,1.945650609,,,
01.914,2.200591463,,,
01.916,2.680480129,,,
01.918,2.875434899,,,
01.920,3.160368794,,,
01.922,3.295337482,,,
01.924,2.830445337,,,
01.926,2.5155184,,,
01.928,2.305567108,,,
01.930,2.245581025,,,
01.932,2.320563629,,,
01.934,2.185594942,,,
01.936,3.055393149,,,
01.938,3.07038967,,,
01.940,2.905427941,,,
01.942,2.920424462,,,
01.944,3.025400107,,,
01.946,2.725469691,,,
01.948,2.200591463,,,
01.950,2.200591463,,,
01.952,2.095615817,,,
01.954,2.275574067,,,
01.956,2.785455774,,,
01.958,3.07038967,,,
01.960,3.565274856,,,
01.962,2.995407066,,,
01.964,2.680480129,,,
01.966,2.1556019,,,
01.968,2.560507962,,,
01.970,2.215587984,,,
01.972,2.095615817,,,
01.974,2.485525358,,,
01.976,2.575504483,,,
01.978,3.145372274,,,
01.980,3.295337482,,,
01.982,3.130375753,,,
01.984,2.950417503,,,
01.986,2.740466212,,,
01.988,2.5155184,,,
01.990,2.020633213,,,
01.992,2.260577546,,,
01.994,2.185594942,,,
01.996,2.770459253,,,
01.998,3.08538619,,,
02.000,2.935420982,,,
02.002,3.130375753,,,
02.004,2.920424462,,,
02.006,2.470528837,,,
02.008,2.33556015,,,
02.010,2.095615817,,,
02.012,2.245581025,,,
02.014,2.665483608,,,
02.016,3.040396628,,,
02.018,3.025400107,,,
02.020,3.115379232,,,
02.022,2.665483608,,,
02.024,2.755462733,,,
02.026,2.410542754,,,
02.028,2.425539275,,,
02.030,2.095615817,,,
02.032,2.14060538,,,
02.034,2.305567108,,,
02.036,2.755462733,,,
02.038,3.040396628,,,
02.040,3.055393149,,,
02.042,2.785455774,,,
02.044,2.725469691,,,
02.046,2.800452295,,,
02.048,2.200591463,,,
02.050,2.050626255,,,
02.052,2.245581025,,,
02.054,2.500521879,,,
02.056,2.725469691,,,
02.058,2.845441857,,,
02.060,2.935420982,,,
02.062,2.935420982,,,
02.064,2.800452295,,,
02.066,2.470528837,,,
02.068,2.230584504,,,
02.070,1.78068888,,,
02.072,2.245581025,,,
02.074,2.290570588,,,
02.076,2.485525358,,,
02.078,2.830445337,,,
02.080,3.100382711,,,
02.082,3.160368794,,,
02.084,2.905427941,,,
02.086,2.33556015,,,
02.088,2.170598421,,,
02.090,1.945650609,,,
02.092,2.440535796,,,
02.094,2.260577546,,,
02.096,2.725469691,,,
02.098,2.770459253,,,
02.100,2.740466212,,,
02.102,2.770459253,,,
02.104,2.965414024,,,
02.106,2.455532317,,,
02.108,2.1556019,,,
02.110,1.705706276,,,
02.112,2.230584504,,,
02.114,2.455532317,,,
02.116,2.665483608,,,
02.118,2.800452295,,,
02.120,3.175365315,,,
02.122,3.220354878,,,
02.124,2.635490566,,,
02.126,1.945650609,,,
02.128,1.810681922,,,
02.130,1.735699318,,,
02.132,1.855671484,,,
02.134,2.5155184,,,
02.136,3.010403586,,,
02.138,2.800452295,,,
02.140,2.785455774,,,
02.142,2.89043142,,,
02.144,2.680480129,,,
02.146,2.170598421,,,
02.148,1.96064713,,,
02.150,2.185594942,,,
02.152,2.290570588,,,
02.154,2.410542754,,,
02.156,2.560507962,,,
02.158,2.89043142,,,
02.160,3.07038967,,,
02.162,3.145372274,,,
02.164,2.740466212,,,
02.166,1.885664526,,,
02.168,1.58573411,,,
02.170,2.005636692,,,
02.172,2.185594942,,,
02.174,2.5155184,,,
02.176,2.650487087,,,
02.178,2.995407066,,,
02.180,2.905427941,,,
02.182,2.665483608,,,
02.184,2.410542754,,,
02.186,2.230584504,,,
02.188,2.260577546,,,
02.190,2.095615817,,,
02.192,1.96064713,,,
02.194,2.395546233,,,
02.196,2.965414024,,,
02.198,3.010403586,,,
02.200,2.905427941,,,
02.202,2.965414024,,,
02.204,2.440535796,,,
02.206,2.035629734,,,
02.208,1.690709755,,,
02.210,1.765692359,,,
02.212,2.050626255,,,
02.214,2.365553192,,,
02.216,2.605497525,,,
02.218,3.100382711,,,
02.220,2.980410545,,,
02.222,2.905427941,,,
02.224,2.455532317,,,
02.226,2.230584504,,,
02.228,1.990640171,,,
02.230,1.765692359,,,
02.232,2.230584504,,,
02.234,2.485525358,,,
02.236,2.500521879,,,
02.238,3.205358357,,,
02.240,3.250347919,,,
02.242,2.770459253,,,
02.244,2.305567108,,,
02.246,2.005636692,,,
02.248,1.615727151,,,
02.250,1.690709755,,,
02.252,2.575504483,,,
02.254,2.665483608,,,
02.256,2.830445337,,,
02.258,3.370320086,,,
02.260,3.010403586,,,
02.262,2.905427941,,,
02.264,2.410542754,,,
02.266,2.005636692,,,
02.268,2.020633213,,,
02.270,2.185594942,,,
02.272,2.170598421,,,
02.274,2.380549712,,,
02.276,2.740466212,,,
02.278,2.965414024,,,
02.280,3.235351398,,,
02.282,3.115379232,,,
02.284,2.485525358,,,
02.286,1.990640171,,,
02.288,2.215587984,,,
02.290,2.215587984,,,
02.292,2.230584504,,,
02.294,2.770459253,,,
02.296,2.830445337,,,
02.298,3.160368794,,,
02.300,3.08538619,,,
02.302,2.815448816,,,
02.304,2.395546233,,,
02.306,2.125608859,,,
02.308,2.125608859,,,
02.310,2.260577546,,,
02.312,2.455532317,,,
02.314,2.545511441,,,
02.316,3.010403586,,,
02.318,3.190361836,,,
02.320,3.025400107,,,
02.322,2.740466212,,,
02.324,2.215587984,,,
02.326,2.005636692,,,
02.328,2.200591463,,,
02.330,1.870668005,,,
02.332,1.915657567,,,
02.334,2.470528837,,,
02.336,2.71047317,,,
02.338,2.905427941,,,
02.340,2.500521879,,,
02.342,2.815448816,,,
02.344,2.230584504,,,
02.346,1.840674963,,,
02.348,1.885664526,,,
02.350,2.1556019,,,
02.352,2.095615817,,,
02.354,2.935420982,,,
02.356,2.845441857,,,
02.358,2.5155184,,,
02.360,2.680480129,,,
02.362,2.500521879,,,
02.364,1.990640171,,,
02.366,1.930654088,,,
02.368,2.050626255,,,
02.370,2.050626255,,,
02.372,2.170598421,,,
02.374,2.740466212,,,
02.376,2.71047317,,,
02.378,2.680480129,,,
02.380,2.680480129,,,
02.382,2.560507962,,,
02.384,2.215587984,,,
02.386,1.78068888,,,
02.388,1.735699318,,,
02.390,1.870668005,,,
02.392,2.170598421,,,
02.394,2.605497525,,,
02.396,2.800452295,,,
02.398,2.665483608,,,
02.400,2.410542754,,,
02.402,2.410542754,,,
02.404,2.380549712,,,
02.406,1.930654088,,,
02.408,1.915657567,,,
02.410,2.125608859,,,
02.412,2.470528837,,,
02.414,2.440535796,,,
02.416,2.500521879,,,
02.418,2.695476649,,,
02.420,2.845441857,,,
02.422,2.500521879,,,
02.424,1.915657567,,,
02.426,2.020633213,,,
02.428,1.945650609,,,
02.430,2.245581025,,,
02.432,2.5155184,,,
02.434,3.040396628,,,
02.436,3.625260939,,,
02.438,3.895198314,,,
02.440,3.850208752,,,
02.442,4.150139168,,,
02.444,3.970180918,,,
02.446,3.490292252,,,
02.448,3.415309648,,,
02.450,3.580271377,,,
02.452,3.385316607,,,
02.454,3.235351398,,,
02.456,2.995407066,,,
02.458,3.040396628,,,
02.460,2.635490566,,,
02.462,2.005636692,,,
02.464,1.58573411,,,
02.466,1.345789777,,,
02.468,1.270807173,,,
02.470,1.315796735,,,
02.472,1.420772381,,,
02.474,1.945650609,,,
02.476,2.365553192,,,
02.478,2.350556671,,,
02.480,1.840674963,,,
02.482,1.690709755,,,
02.484,1.525748026,,,
02.486,1.510751506,,,
02.488,1.705706276,,,
02.490,1.930654088,,,
02.492,2.200591463,,,
02.494,2.530514921,,,
02.496,2.650487087,,,
02.498,2.725469691,,,
02.500,2.635490566,,,
02.502,2.440535796,,,
02.504,2.305567108,,,
02.506,1.96064713,,,
02.508,1.60073063,,,
02.510,2.33556015,,,
02.512,2.1556019,,,
02.514,2.545511441,,,
02.516,2.530514921,,,
02.518,3.08538619,,,
02.520,2.755462733,,,
02.522,2.470528837,,,
02.524,1.855671484,,,
02.526,1.78068888,,,
02.528,2.365553192,,,
02.530,2.230584504,,,
02.532,2.185594942,,,
02.534,2.815448816,,,
02.536,3.010403586,,,
02.538,2.785455774,,,
02.540,2.785455774,,,
02.542,2.560507962,,,
02.544,1.840674963,,,
02.546,1.78068888,,,
02.548,1.690709755,,,
02.550,2.050626255,,,
02.552,2.545511441,,,
02.554,2.935420982,,,
02.556,2.785455774,,,
02.558,2.740466212,,,
02.560,3.010403586,,,
02.562,2.320563629,,,
02.564,1.975643651,,,
02.566,1.870668005,,,
02.568,1.975643651,,,
02.570,2.110612338,,,
02.572,2.5155184,,,
02.574,2.620494045,,,
02.576,2.920424462,,,
02.578,3.025400107,,,
02.580,2.995407066,,,
02.582,2.665483608,,,
02.584,1.945650609,,,
02.586,2.050626255,,,
02.588,2.110612338,,,
02.590,1.885664526,,,
02.592,2.440535796,,,
02.594,3.130375753,,,
02.596,3.235351398,,,
02.598,3.250347919,,,
02.600,3.160368794,,,
02.602,2.485525358,,,
02.604,2.320563629,,,
02.606,1.990640171,,,
02.608,2.095615817,,,
02.610,2.635490566,,,
02.612,2.980410545,,,
02.614,2.965414024,,,
02.616,3.26534444,,,
02.618,2.845441857,,,
02.620,2.575504483,,,
02.622,2.680480129,,,
02.624,2.290570588,,,
02.626,2.020633213,,,
02.628,2.1556019,,,
02.630,2.800452295,,,
02.632,3.040396628,,,
02.634,3.370320086,,,
02.636,3.580271377,,,
02.638,3.610264419,,,
02.640,3.370320086,,,
02.642,2.89043142,,,
02.644,2.665483608,,,
02.646,2.545511441,,,
02.648,2.440535796,,,
02.650,2.950417503,,,
02.652,3.26534444,,,
02.654,3.655253981,,,
02.656,3.985177439,,,
02.658,3.625260939,,,
02.660,3.355323565,,,
02.662,3.235351398,,,
02.664,3.115379232,,,
02.666,2.755462733,,,
02.668,2.935420982,,,
02.670,3.310334003,,,
02.672,3.550278335,,,
02.674,3.685247023,,,
02.676,3.760229627,,,
02.678,4.00017396,,,
02.680,3.865205272,,,
02.682,3.535281815,,,
02.684,3.26534444,,,
02.686,3.490292252,,,
02.688,3.415309648,,,
02.690,3.400313127,,,
02.692,4.060160043,,,
02.694,4.390083501,,,
02.696,4.300104376,,,
02.698,4.135142647,,,
02.700,4.165135689,,,
02.702,3.790222668,,,
02.704,3.400313127,,,
02.706,3.220354878,,,
02.708,3.190361836,,,
02.710,3.310334003,,,
02.712,4.01517048,,,
02.714,4.00017396,,,
02.716,3.82021571,,,
02.718,3.64025746,,,
02.720,3.310334003,,,
02.722,3.145372274,,,
02.724,2.980410545,,,
02.726,2.770459253,,,
02.728,2.755462733,,,
02.730,2.995407066,,,
02.732,3.385316607,,,
02.734,3.805219189,,,
02.736,3.670250502,,,
02.738,3.175365315,,,
02.740,2.740466212,,,
02.742,2.605497525,,,
02.744,2.350556671,,,
02.746,2.440535796,,,
02.748,2.260577546,,,
02.750,2.815448816,,,
02.752,2.785455774,,,
02.754,3.010403586,,,
02.756,3.145372274,,,
02.758,2.920424462,,,
02.760,2.530514921,,,
02.762,2.125608859,,,
02.764,1.975643651,,,
02.766,1.96064713,,,
02.768,2.245581025,,,
02.770,2.530514921,,,
02.772,2.995407066,,,
02.774,3.08538619,,,
02.776,3.07038967,,,
02.778,2.830445337,,,
02.780,2.695476649,,,
02.782,2.005636692,,,
02.784,1.840674963,,,
02.786,1.750695839,,,
02.788,1.945650609,,,
02.790,2.440535796,,,
02.792,2.905427941,,,
02.794,3.160368794,,,
02.796,2.830445337,,,
02.798,2.830445337,,,
02.800,2.185594942,,,
02.802,1.840674963,,,
02.804,1.975643651,,,
02.806,1.915657567,,,
02.808,2.215587984,,,
02.810,2.575504483,,,
02.812,2.725469691,,,
02.814,2.815448816,,,
02.816,2.995407066,,,
02.818,2.695476649,,,
02.820,2.680480129,,,
02.822,2.095615817,,,
02.824,1.765692359,,,
02.826,2.215587984,,,
02.828,2.050626255,,,
02.830,2.275574067,,,
02.832,2.71047317,,,
02.834,3.160368794,,,
02.836,2.830445337,,,
02.838,2.530514921,,,
02.840,2.305567108,,,
02.842,1.930654088,,,
02.844,1.945650609,,,
02.846,1.930654088,,,
02.848,2.110612338,,,
02.850,2.470528837,,,
02.852,2.920424462,,,
02.854,2.920424462,,,
02.856,2.815448816,,,
02.858,2.500521879,,,
02.860,2.470528837,,,
02.862,2.1556019,,,
02.864,1.510751506,,,
02.866,1.78068888,,,
02.868,2.215587984,,,
02.870,2.470528837,,,
02.872,2.875434899,,,
02.874,2.71047317,,,
02.876,2.845441857,,,
02.878,2.755462733,,,
02.880,2.125608859,,,
02.882,2.065622776,,,
02.884,2.14060538,,,
02.886,1.78068888,,,
02.888,2.080619296,,,
02.890,2.560507962,,,
02.892,2.770459253,,,
02.894,2.980410545,,,
02.896,3.145372274,,,
02.898,2.650487087,,,
02.900,2.33556015,,,
02.902,1.870668005,,,
02.904,1.78068888,,,
02.906,2.035629734,,,
02.908,2.350556671,,,
02.910,2.440535796,,,
02.912,2.680480129,,,
02.914,2.905427941,,,
02.916,2.680480129,,,
02.918,2.455532317,,,
02.920,2.095615817,,,
02.922,1.930654088,,,
02.924,1.990640171,,,
02.926,2.125608859,,,
02.928,2.050626255,,,
02.930,2.560507962,,,
02.932,2.89043142,,,
02.934,2.875434899,,,
02.936,2.695476649,,,
02.938,2.575504483,,,
02.940,2.185594942,,,
02.942,1.975643651,,,
02.944,1.795685401,,,
02.946,1.930654088,,,
02.948,2.185594942,,,
02.950,2.605497525,,,
02.952,2.905427941,,,
02.954,2.815448816,,,
02.956,2.635490566,,,
02.958,2.440535796,,,
02.960,1.825678443,,,
02.962,1.855671484,,,
02.964,1.945650609,,,
02.966,1.870668005,,,
02.968,2.170598421,,,
02.970,2.740466212,,,
02.972,2.770459253,,,
02.974,3.160368794,,,
02.976,2.830445337,,,
02.978,2.920424462,,,
02.980,1.885664526,,,
02.982,1.900661047,,,
02.984,1.60073063,,,
02.986,1.990640171,,,
02.988,2.260577546,,,
02.990,2.440535796,,,
02.992,2.635490566,,,
02.994,2.860438378,,,
02.996,2.680480129,,,
02.998,2.635490566,,,
03.000,2.065622776,,,
03.002,1.990640171,,,
03.004,1.870668005,,,
03.006,1.870668005,,,
03.008,2.230584504,,,
03.010,2.5155184,,,
03.012,2.755462733,,,
03.014,2.665483608,,,
03.016,2.5155184,,,
03.018,2.455532317,,,
03.020,2.260577546,,,
03.022,2.1556019,,,
03.024,1.900661047,,,
03.026,2.110612338,,,
03.028,2.14060538,,,
03.030,2.635490566,,,
03.032,2.695476649,,,
03.034,2.71047317,,,
03.036,2.500521879,,,
03.038,2.350556671,,,
03.040,1.915657567,,,
03.042,1.900661047,,,
03.044,1.900661047,,,
03.046,1.810681922,,,
03.048,1.810681922,,,
03.050,2.980410545,,,
03.052,3.26534444,,,
03.054,3.205358357,,,
03.056,2.200591463,,,
03.058,2.380549712,,,
03.060,2.455532317,,,
03.062,1.885664526,,,
03.064,1.60073063,,,
03.066,2.080619296,,,
03.068,2.260577546,,,
03.070,2.455532317,,,
03.072,2.815448816,,,
03.074,2.965414024,,,
03.076,2.485525358,,,
03.078,2.440535796,,,
03.080,2.065622776,,,
03.082,2.080619296,,,
03.084,1.825678443,,,
03.086,1.810681922,,,
03.088,2.305567108,,,
03.090,2.860438378,,,
03.092,2.935420982,,,
03.094,2.650487087,,,
03.096,2.530514921,,,
03.098,2.33556015,,,
03.100,1.930654088,,,
03.102,1.975643651,,,
03.104,1.945650609,,,
03.106,2.005636692,,,
03.108,2.425539275,,,
03.110,2.575504483,,,
03.112,2.71047317,,,
03.114,2.905427941,,,
03.116,2.800452295,,,
03.118,2.500521879,,,
03.120,2.080619296,,,
03.122,1.735699318,,,
03.124,1.825678443,,,
03.126,2.275574067,,,
03.128,2.485525358,,,
03.130,2.620494045,,,
03.132,2.665483608,,,
03.134,2.995407066,,,
03.136,2.485525358,,,
03.138,2.305567108,,,
03.140,1.915657567,,,
03.142,1.690709755,,,
03.144,1.795685401,,,
03.146,2.260577546,,,
03.148,2.215587984,,,
03.150,2.560507962,,,
03.152,3.040396628,,,
03.154,2.740466212,,,
03.156,2.500521879,,,
03.158,2.200591463,,,
03.160,2.170598421,,,
03.162,1.870668005,,,
03.164,2.380549712,,,
03.166,2.410542754,,,
03.168,2.560507962,,,
03.170,2.605497525,,,
03.172,2.590501004,,,
03.174,2.650487087,,,
03.176,2.590501004,,,
03.178,2.470528837,,,
03.180,1.945650609,,,
03.182,1.795685401,,,
03.184,2.200591463,,,
03.186,2.185594942,,,
03.188,2.455532317,,,
03.190,2.635490566,,,
03.192,2.785455774,,,
03.194,2.845441857,,,
03.196,2.635490566,,,
03.198,2.350556671,,,
03.200,1.945650609,,,
03.202,1.735699318,,,
03.204,1.720702797,,,
03.206,1.885664526,,,
03.208,2.575504483,,,
03.210,2.530514921,,,
03.212,2.785455774,,,
03.214,2.905427941,,,
03.216,2.530514921,,,
03.218,2.200591463,,,
03.220,2.005636692,,,
03.222,1.885664526,,,
03.224,1.825678443,,,
03.226,2.365553192,,,
03.228,2.935420982,,,
03.230,2.785455774,,,
03.232,2.545511441,,,
03.234,2.605497525,,,
03.236,2.500521879,,,
03.238,2.110612338,,,
03.240,1.990640171,,,
03.242,1.795685401,,,
03.244,1.855671484,,,
03.246,2.035629734,,,
03.248,2.545511441,,,
03.250,2.875434899,,,
03.252,3.26534444,,,
03.254,2.680480129,,,
03.256,2.725469691,,,
03.258,2.455532317,,,
03.260,1.765692359,,,
03.262,1.58573411,,,
03.264,1.900661047,,,
03.266,2.110612338,,,
03.268,2.380549712,,,
03.270,2.875434899,,,
03.272,2.770459253,,,
03.274,2.965414024,,,
03.276,2.620494045,,,
03.278,2.14060538,,,
03.280,1.765692359,,,
03.282,1.660716714,,,
03.284,1.795685401,,,
03.286,2.110612338,,,
03.288,2.560507962,,,
03.290,2.770459253,,,
03.292,3.205358357,,,
03.294,3.055393149,,,
03.296,2.545511441,,,
03.298,2.080619296,,,
03.300,1.58573411,,,
03.302,1.675713235,,,
03.304,2.125608859,,,
03.306,2.110612338,,,
03.308,2.650487087,,,
03.310,2.89043142,,,
03.312,2.635490566,,,
03.314,2.635490566,,,
03.316,2.905427941,,,
03.318,2.170598421,,,
03.320,1.885664526,,,
03.322,2.185594942,,,
03.324,2.1556019,,,
03.326,2.080619296,,,
03.328,2.800452295,,,
03.330,2.770459253,,,
03.332,2.605497525,,,
03.334,2.725469691,,,
03.336,2.785455774,,,
03.338,2.245581025,,,
03.340,1.810681922,,,
03.342,1.975643651,,,
03.344,2.365553192,,,
03.346,2.875434899,,,
03.348,2.845441857,,,
03.350,2.560507962,,,
03.352,3.100382711,,,
03.354,2.680480129,,,
03.356,2.905427941,,,
03.358,2.005636692,,,
03.360,1.930654088,,,
03.362,2.125608859,,,
03.364,2.230584504,,,
03.366,2.455532317,,,
03.368,2.620494045,,,
03.370,2.980410545,,,
03.372,2.980410545,,,
03.374,2.920424462,,,
03.376,2.845441857,,,
03.378,2.485525358,,,
03.380,2.260577546,,,
03.382,2.050626255,,,
03.384,2.110612338,,,
03.386,2.635490566,,,
03.388,2.665483608,,,
03.390,2.755462733,,,
03.392,2.995407066,,,
03.394,2.635490566,,,
03.396,2.650487087,,,
03.398,2.065622776,,,
03.400,1.78068888,,,
03.402,1.58573411,,,
03.404,1.630723672,,,
03.406,2.620494045,,,
03.408,2.800452295,,,
03.410,3.490292252,,,
03.412,2.605497525,,,
03.414,2.830445337,,,
03.416,2.410542754,,,
03.418,1.795685401,,,
03.420,1.900661047,,,
03.422,1.675713235,,,
03.424,1.78068888,,,
03.426,2.260577546,,,
03.428,2.755462733,,,
03.430,2.845441857,,,
03.432,2.860438378,,,
03.434,2.920424462,,,
03.436,2.395546233,,,
03.438,1.78068888,,,
03.440,1.630723672,,,
03.442,1.855671484,,,
03.444,1.855671484,,,
03.446,2.230584504,,,
03.448,2.635490566,,,
03.450,2.830445337,,,
03.452,2.830445337,,,
03.454,2.770459253,,,
03.456,2.185594942,,,
03.458,1.975643651,,,
03.460,1.795685401,,,
03.462,1.645720193,,,
03.464,1.810681922,,,
03.466,2.5155184,,,
03.468,2.770459253,,,
03.470,2.635490566,,,
03.472,2.770459253,,,
03.474,2.560507962,,,
03.476,2.305567108,,,
03.478,1.96064713,,,
03.480,1.765692359,,,
03.482,1.78068888,,,
03.484,1.825678443,,,
03.486,2.245581025,,,
03.488,2.845441857,,,
03.490,3.205358357,,,
03.492,3.100382711,,,
03.494,2.290570588,,,
03.496,1.990640171,,,
03.498,1.810681922,,,
03.500,1.990640171,,,
03.502,2.5155184,,,
03.504,2.470528837,,,
03.506,3.115379232,,,
03.508,3.190361836,,,
03.510,4.00017396,,,
03.512,3.895198314,,,
03.514,4.210125251,,,
03.516,4.135142647,,,
03.518,3.700243543,,,
03.520,3.310334003,,,
03.522,2.845441857,,,
03.524,2.71047317,,,
03.526,3.07038967,,,
03.528,3.07038967,,,
03.530,2.845441857,,,
03.532,2.680480129,,,
03.534,2.410542754,,,
03.536,2.020633213,,,
03.538,1.465761943,,,
03.540,1.120841965,,,
03.542,1.330793256,,,
03.544,1.480758464,,,
03.546,1.900661047,,,
03.548,1.885664526,,,
03.550,1.930654088,,,
03.552,2.065622776,,,
03.554,1.930654088,,,
03.556,1.870668005,,,
03.558,1.795685401,,,
03.560,1.60073063,,,
03.562,1.975643651,,,
03.564,2.080619296,,,
03.566,2.425539275,,,
03.568,2.935420982,,,
03.570,2.920424462,,,
03.572,2.725469691,,,
03.574,2.470528837,,,
03.576,1.915657567,,,
03.578,1.720702797,,,
03.580,1.855671484,,,
03.582,2.215587984,,,
03.584,2.050626255,,,
03.586,2.500521879,,,
03.588,3.040396628,,,
03.590,2.755462733,,,
03.592,2.410542754,,,
03.594,2.575504483,,,
03.596,2.110612338,,,
03.598,1.870668005,,,
03.600,1.750695839,,,
03.602,1.58573411,,,
03.604,2.260577546,,,
03.606,2.605497525,,,
03.608,3.220354878,,,
03.610,2.920424462,,,
03.612,2.785455774,,,
03.614,2.575504483,,,
03.616,2.305567108,,,
03.618,1.870668005,,,
03.620,1.870668005,,,
03.622,2.125608859,,,
03.624,2.33556015,,,
03.626,2.530514921,,,
03.628,2.770459253,,,
03.630,3.130375753,,,
03.632,2.935420982,,,
03.634,2.470528837,,,
03.636,1.96064713,,,
03.638,1.795685401,,,
03.640,2.260577546,,,
03.642,2.005636692,,,
03.644,2.125608859,,,
03.646,2.5155184,,,
03.648,3.010403586,,,
03.650,2.875434899,,,
03.652,2.800452295,,,
03.654,2.575504483,,,
03.656,2.125608859,,,
03.658,2.215587984,,,
03.660,2.110612338,,,
03.662,2.185594942,,,
03.664,2.1556019,,,
03.666,2.905427941,,,
03.668,3.175365315,,,
03.670,3.355323565,,,
03.672,2.875434899,,,
03.674,2.410542754,,,
03.676,2.020633213,,,
03.678,1.870668005,,,
03.680,2.005636692,,,
03.682,2.380549712,,,
03.684,2.815448816,,,
03.686,2.785455774,,,
03.688,3.175365315,,,
03.690,3.26534444,,,
03.692,3.190361836,,,
03.694,2.455532317,,,
03.696,2.410542754,,,
03.698,2.305567108,,,
03.700,2.380549712,,,
03.702,2.305567108,,,
03.704,2.635490566,,,
03.706,3.025400107,,,
03.708,3.250347919,,,
03.710,3.565274856,,,
03.712,3.235351398,,,
03.714,3.08538619,,,
03.716,2.770459253,,,
03.718,2.5155184,,,
03.720,2.680480129,,,
03.722,3.100382711,,,
03.724,3.505288773,,,
03.726,3.505288773,,,
03.728,3.82021571,,,
03.730,3.835212231,,,
03.732,3.580271377,,,
03.734,3.100382711,,,
03.736,2.740466212,,,
03.738,2.785455774,,,
03.740,2.905427941,,,
03.742,3.205358357,,,
03.744,3.655253981,,,
03.746,3.835212231,,,
03.748,4.01517048,,,
03.750,4.135142647,,,
03.752,3.925191356,,,
03.754,3.460299211,,,
03.756,3.655253981,,,
03.758,3.145372274,,,
03.760,3.550278335,,,
03.762,3.790222668,,,
03.764,3.715240064,,,
03.766,3.985177439,,,
03.768,4.060160043,,,
03.770,4.120146126,,,
03.772,4.150139168,,,
03.774,3.880201793,,,
03.776,3.295337482,,,
03.778,3.190361836,,,
03.780,3.220354878,,,
03.782,3.430306169,,,
03.784,3.550278335,,,
03.786,3.880201793,,,
03.788,4.405080021,,,
03.790,4.660020875,,,
03.792,3.910194835,,,
03.794,3.550278335,,,
03.796,3.26534444,,,
03.798,2.725469691,,,
03.800,2.875434899,,,
03.802,3.205358357,,,
03.804,3.610264419,,,
03.806,3.325330523,,,
03.808,3.26534444,,,
03.810,3.130375753,,,
03.812,3.100382711,,,
03.814,2.89043142,,,
03.816,2.845441857,,,
03.818,2.410542754,,,
03.820,2.380549712,,,
03.822,2.785455774,,,
03.824,3.235351398,,,
03.826,3.325330523,,,
03.828,3.325330523,,,
03.830,2.950417503,,,
03.832,2.830445337,,,
03.834,2.575504483,,,
03.836,2.230584504,,,
03.838,2.14060538,,,
03.840,2.080619296,,,
03.842,2.215587984,,,
03.844,2.560507962,,,
03.846,2.800452295,,,
03.848,3.040396628,,,
03.850,3.205358357,,,
03.852,2.620494045,,,
03.854,2.5155184,,,
03.856,2.200591463,,,
03.858,2.035629734,,,
03.860,2.035629734,,,
03.862,2.755462733,,,
03.864,3.190361836,,,
03.866,2.650487087,,,
03.868,2.740466212,,,
03.870,2.905427941,,,
03.872,2.755462733,,,
03.874,2.1556019,,,
03.876,2.080619296,,,
03.878,1.96064713,,,
03.880,2.065622776,,,
03.882,2.065622776,,,
03.884,2.470528837,,,
03.886,3.190361836,,,
03.888,3.130375753,,,
03.890,3.160368794,,,
03.892,2.785455774,,,
03.894,2.365553192,,,
03.896,2.110612338,,,
03.898,1.810681922,,,
03.900,2.065622776,,,
03.902,2.320563629,,,
03.904,2.995407066,,,
03.906,3.07038967,,,
03.908,2.965414024,,,
03.910,2.71047317,,,
03.912,2.560507962,,,
03.914,2.305567108,,,
03.916,2.290570588,,,
03.918,1.990640171,,,
03.920,2.080619296,,,
03.922,2.500521879,,,
03.924,2.965414024,,,
03.926,3.115379232,,,
03.928,3.205358357,,,
03.930,2.740466212,,,
03.932,2.500521879,,,
03.934,1.885664526,,,
03.936,1.885664526,,,
03.938,1.975643651,,,
03.940,2.215587984,,,
03.942,2.455532317,,,
03.944,2.785455774,,,
03.946,2.905427941,,,
03.948,3.025400107,,,
03.950,2.980410545,,,
03.952,2.650487087,,,
03.954,2.365553192,,,
03.956,2.095615817,,,
03.958,1.96064713,,,
03.960,2.260577546,,,
03.962,2.170598421,,,
03.964,2.590501004,,,
03.966,2.800452295,,,
03.968,3.205358357,,,
03.970,2.875434899,,,
03.972,2.665483608,,,
03.974,2.005636692,,,
03.976,2.125608859,,,
03.978,1.96064713,,,
03.980,2.125608859,,,
03.982,2.785455774,,,
03.984,3.100382711,,,
03.986,3.190361836,,,
03.988,2.755462733,,,
03.990,2.545511441,,,
03.992,2.575504483,,,
03.994,2.230584504,,,
03.996,1.945650609,,,
03.998,2.125608859,,,
04.000,2.215587984,,,
04.002,2.320563629,,,
04.004,2.725469691,,,
04.006,3.160368794,,,
04.008,3.44530269,,,
04.010,3.055393149,,,
04.012,2.230584504,,,
04.014,2.290570588,,,
04.016,2.065622776,,,
04.018,1.765692359,,,
04.020,2.245581025,,,
04.022,2.470528837,,,
04.024,2.845441857,,,
04.026,2.950417503,,,
04.028,2.89043142,,,
04.030,2.71047317,,,
04.032,2.365553192,,,
04.034,2.125608859,,,
04.036,1.945650609,,,
04.038,1.840674963,,,
04.040,2.245581025,,,
04.042,2.440535796,,,
04.044,2.830445337,,,
04.046,3.08538619,,,
04.048,2.89043142,,,
04.050,2.935420982,,,
04.052,2.740466212,,,
04.054,2.1556019,,,
04.056,1.645720193,,,
04.058,2.305567108,,,
04.060,2.470528837,,,
04.062,2.260577546,,,
04.064,2.71047317,,,
04.066,3.190361836,,,
04.068,2.965414024,,,
04.070,2.650487087,,,
04.072,2.215587984,,,
04.074,1.930654088,,,
04.076,2.065622776,,,
04.078,2.065622776,,,
04.080,1.96064713,,,
04.082,2.635490566,,,
04.084,2.965414024,,,
04.086,3.145372274,,,
04.088,2.620494045,,,
04.090,2.575504483,,,
04.092,2.200591463,,,
04.094,2.020633213,,,
04.096,2.035629734,,,
04.098,1.930654088,,,
04.100,2.320563629,,,
04.102,2.860438378,,,
04.104,2.935420982,,,
04.106,2.920424462,,,
04.108,3.025400107,,,
04.110,2.71047317,,,
04.112,2.305567108,,,
04.114,2.230584504,,,
04.116,2.065622776,,,
04.118,1.990640171,,,
04.120,2.020633213,,,
04.122,2.650487087,,,
04.124,2.860438378,,,
04.126,3.08538619,,,
04.128,2.950417503,,,
04.130,2.740466212,,,
04.132,2.200591463,,,
04.134,1.930654088,,,
04.136,1.705706276,,,
04.138,1.945650609,,,
04.140,2.14060538,,,
04.142,2.470528837,,,
04.144,2.950417503,,,
04.146,3.325330523,,,
04.148,2.950417503,,,
04.150,2.845441857,,,
04.152,2.275574067,,,
04.154,1.795685401,,,
04.156,1.720702797,,,
04.158,2.230584504,,,
04.160,2.125608859,,,
04.162,2.545511441,,,
04.164,3.100382711,,,
04.166,3.07038967,,,
04.168,2.815448816,,,
04.170,2.905427941,,,
04.172,2.5155184,,,
04.174,2.260577546,,,
04.176,1.810681922,,,
04.178,2.110612338,,,
04.180,2.365553192,,,
04.182,2.440535796,,,
04.184,2.755462733,,,
04.186,2.950417503,,,
04.188,2.860438378,,,
04.190,2.680480129,,,
04.192,2.125608859,,,
04.194,1.855671484,,,
04.196,1.96064713,,,
04.198,2.050626255,,,
04.200,2.545511441,,,
04.202,2.71047317,,,
04.204,2.89043142,,,
04.206,2.980410545,,,
04.208,2.770459253,,,
04.210,2.560507962,,,
04.212,2.725469691,,,
04.214,2.305567108,,,
04.216,1.885664526,,,
04.218,1.990640171,,,
04.220,2.275574067,,,
04.222,2.680480129,,,
04.224,2.830445337,,,
04.226,3.08538619,,,
04.228,2.905427941,,,
04.230,2.410542754,,,
04.232,2.1556019,,,
04.234,1.915657567,,,
04.236,1.885664526,,,
04.238,2.005636692,,,
04.240,2.305567108,,,
04.242,2.875434899,,,
04.244,2.800452295,,,
04.246,3.025400107,,,
04.248,3.220354878,,,
04.250,2.860438378,,,
04.252,2.215587984,,,
04.254,1.975643651,,,
04.256,1.885664526,,,
04.258,2.350556671,,,
04.260,2.410542754,,,
04.262,2.455532317,,,
04.264,2.935420982,,,
04.266,2.875434899,,,
04.268,2.680480129,,,
04.270,2.290570588,,,
04.272,2.215587984,,,
04.274,2.125608859,,,
04.276,2.005636692,,,
04.278,2.1556019,,,
04.280,2.500521879,,,
04.282,2.815448816,,,
04.284,2.860438378,,,
04.286,2.860438378,,,
04.288,2.935420982,,,
04.290,2.905427941,,,
04.292,1.945650609,,,
04.294,1.810681922,,,
04.296,2.005636692,,,
04.298,2.020633213,,,
04.300,2.260577546,,,
04.302,2.725469691,,,
04.304,3.07038967,,,
04.306,3.205358357,,,
04.308,2.560507962,,,
04.310,2.125608859,,,
04.312,2.665483608,,,
04.314,2.320563629,,,
04.316,2.095615817,,,
04.318,1.975643651,,,
04.320,2.275574067,,,
04.322,2.860438378,,,
04.324,2.995407066,,,
04.326,2.665483608,,,
04.328,2.770459253,,,
04.330,2.530514921,,,
04.332,2.005636692,,,
04.334,2.020633213,,,
04.336,2.080619296,,,
04.338,2.275574067,,,
04.340,2.425539275,,,
04.342,2.785455774,,,
04.344,3.145372274,,,
04.346,3.280340961,,,
04.348,2.845441857,,,
04.350,2.485525358,,,
04.352,1.945650609,,,
04.354,2.005636692,,,
04.356,1.96064713,,,
04.358,1.900661047,,,
04.360,2.575504483,,,
04.362,2.89043142,,,
04.364,2.89043142,,,
04.366,2.920424462,,,
04.368,2.725469691,,,
04.370,2.425539275,,,
04.372,1.975643651,,,
04.374,1.825678443,,,
04.376,2.110612338,,,
04.378,2.185594942,,,
04.380,2.830445337,,,
04.382,2.740466212,,,
04.384,2.89043142,,,
04.386,2.755462733,,,
04.388,2.500521879,,,
04.390,2.215587984,,,
04.392,2.080619296,,,
04.394,2.005636692,,,
04.396,1.990640171,,,
04.398,2.095615817,,,
04.400,2.365553192,,,
04.402,2.935420982,,,
04.404,3.370320086,,,
04.406,3.115379232,,,
04.408,2.860438378,,,
04.410,2.440535796,,,
04.412,2.005636692,,,
04.414,1.930654088,,,
04.416,2.1556019,,,
04.418,2.185594942,,,
04.420,2.695476649,,,
04.422,2.770459253,,,
04.424,3.040396628,,,
04.426,3.010403586,,,
04.428,2.845441857,,,
04.430,2.260577546,,,
04.432,1.810681922,,,
04.434,1.96064713,,,
04.436,2.005636692,,,
04.438,2.185594942,,,
04.440,2.530514921,,,
04.442,3.025400107,,,
04.444,2.770459253,,,
04.446,3.08538619,,,
04.448,2.695476649,,,
04.450,2.650487087,,,
04.452,2.290570588,,,
04.454,1.615727151,,,
04.456,2.215587984,,,
04.458,2.380549712,,,
04.460,2.725469691,,,
04.462,2.770459253,,,
04.464,2.905427941,,,
04.466,3.235351398,,,
04.468,3.010403586,,,
04.470,2.305567108,,,
04.472,2.245581025,,,
04.474,2.260577546,,,
04.476,2.695476649,,,
04.478,2.740466212,,,
04.480,2.920424462,,,
04.482,3.08538619,,,
04.484,3.310334003,,,
04.486,3.145372274,,,
04.488,2.755462733,,,
04.490,2.305567108,,,
04.492,2.33556015,,,
04.494,2.1556019,,,
04.496,2.275574067,,,
04.498,2.530514921,,,
04.500,2.800452295,,,
04.502,2.860438378,,,
04.504,2.935420982,,,
04.506,2.800452295,,,
04.508,2.89043142,,,
04.510,2.545511441,,,
04.512,1.810681922,,,
04.514,1.825678443,,,
04.516,1.900661047,,,
04.518,2.005636692,,,
04.520,2.665483608,,,
04.522,3.130375753,,,
04.524,3.040396628,,,
04.526,2.905427941,,,
04.528,2.740466212,,,
04.530,2.125608859,,,
04.532,1.900661047,,,
04.534,1.78068888,,,
04.536,2.065622776,,,
04.538,2.095615817,,,
04.540,2.770459253,,,
04.542,2.860438378,,,
04.544,2.860438378,,,
04.546,2.725469691,,,
04.548,2.380549712,,,
04.550,2.035629734,,,
04.552,1.975643651,,,
04.554,2.1556019,,,
04.556,2.125608859,,,
04.558,2.560507962,,,
04.560,2.665483608,,,
04.562,2.950417503,,,
04.564,2.965414024,,,
04.566,2.680480129,,,
04.568,2.350556671,,,
04.570,1.900661047,,,
04.572,1.945650609,,,
04.574,2.065622776,,,
04.576,1.915657567,,,
04.578,2.350556671,,,
04.580,3.08538619,,,
04.582,3.010403586,,,
04.584,2.740466212,,,
04.586,2.815448816,,,
04.588,2.500521879,,,
04.590,2.095615817,,,
04.592,1.900661047,,,
04.594,2.125608859,,,
04.596,2.395546233,,,
04.598,2.395546233,,,
04.600,2.770459253,,,
04.602,2.680480129,,,
04.604,2.815448816,,,
04.606,3.07038967,,,
04.608,2.530514921,,,
04.610,2.200591463,,,
04.612,2.215587984,,,
04.614,2.410542754,,,
04.616,2.605497525,,,
04.618,2.980410545,,,
04.620,3.970180918,,,
04.622,4.105149605,,,
04.624,4.360090459,,,
04.626,4.435073063,,,
04.628,3.985177439,,,
04.630,3.550278335,,,
04.632,3.280340961,,,
04.634,2.875434899,,,
04.636,2.800452295,,,
04.638,2.875434899,,,
04.640,2.950417503,,,
04.642,3.130375753,,,
04.644,2.665483608,,,
04.646,2.350556671,,,
04.648,2.095615817,,,
04.650,1.765692359,,,
04.652,1.525748026,,,
04.654,1.21082109,,,
04.656,1.465761943,,,
04.658,1.885664526,,,
04.660,2.305567108,,,
04.662,2.440535796,,,
04.664,2.065622776,,,
04.666,2.200591463,,,
04.668,1.900661047,,,
04.670,1.720702797,,,
04.672,1.885664526,,,
04.674,1.810681922,,,
04.676,2.170598421,,,
04.678,2.590501004,,,
04.680,2.920424462,,,
04.682,3.115379232,,,
04.684,2.860438378,,,
04.686,2.365553192,,,
04.688,2.200591463,,,
04.690,2.1556019,,,
04.692,2.035629734,,,
04.694,2.125608859,,,
04.696,2.455532317,,,
04.698,2.740466212,,,
04.700,2.920424462,,,
04.702,3.145372274,,,
04.704,3.025400107,,,
04.706,2.575504483,,,
04.708,2.33556015,,,
04.710,2.095615817,,,
04.712,1.990640171,,,
04.714,1.975643651,,,
04.716,2.275574067,,,
04.718,2.365553192,,,
04.720,2.965414024,,,
04.722,3.385316607,,,
04.724,3.07038967,,,
04.726,2.785455774,,,
04.728,2.545511441,,,
04.730,1.96064713,,,
04.732,1.945650609,,,
04.734,2.185594942,,,
04.736,2.350556671,,,
04.738,2.830445337,,,
04.740,3.025400107,,,
04.742,3.26534444,,,
04.744,2.770459253,,,
04.746,2.650487087,,,
04.748,2.455532317,,,
04.750,2.125608859,,,
04.752,2.14060538,,,
04.754,2.245581025,,,
04.756,2.1556019,,,
04.758,2.980410545,,,
04.760,3.280340961,,,
04.762,3.250347919,,,
04.764,3.130375753,,,
04.766,2.935420982,,,
04.768,2.785455774,,,
04.770,2.065622776,,,
04.772,2.035629734,,,
04.774,2.095615817,,,
04.776,2.485525358,,,
04.778,3.055393149,,,
04.780,3.100382711,,,
04.782,3.610264419,,,
04.784,3.190361836,,,
04.786,2.545511441,,,
04.788,2.290570588,,,
04.790,3.025400107,,,
04.792,2.455532317,,,
04.794,2.350556671,,,
04.796,2.695476649,,,
04.798,2.950417503,,,
04.800,3.055393149,,,
04.802,3.08538619,,,
04.804,3.340327044,,,
04.806,2.875434899,,,
04.808,2.71047317,,,
04.810,2.230584504,,,
04.812,2.305567108,,,
04.814,2.71047317,,,
04.816,2.815448816,,,
04.818,3.505288773,,,
04.820,3.775226148,,,
04.822,3.520285294,,,
04.824,3.505288773,,,
04.826,3.310334003,,,
04.828,3.010403586,,,
04.830,2.935420982,,,
04.832,2.785455774,,,
04.834,2.815448816,,,
04.836,3.160368794,,,
04.838,3.475295731,,,
04.840,3.925191356,,,
04.842,4.135142647,,,
04.844,4.045163522,,,
04.846,3.340327044,,,
04.848,3.08538619,,,
04.850,3.355323565,,,
04.852,3.220354878,,,
04.854,3.205358357,,,
04.856,3.535281815,,,
04.858,3.940187876,,,
04.860,4.270111334,,,
04.862,4.180132209,,,
04.864,4.150139168,,,
04.866,4.180132209,,,
04.868,3.595267898,,,
04.870,3.505288773,,,
04.872,3.775226148,,,
04.874,3.790222668,,,
04.876,3.82021571,,,
04.878,3.940187876,,,
04.880,4.525052188,,,
04.882,4.57004175,,,
04.884,4.210125251,,,
04.886,3.910194835,,,
04.888,3.790222668,,,
04.890,3.415309648,,,
04.892,3.460299211,,,
04.894,3.700243543,,,
04.896,3.835212231,,,
04.898,4.01517048,,,
04.900,4.270111334,,,
04.902,4.615031313,,,
04.904,4.180132209,,,
04.906,3.505288773,,,
04.908,3.370320086,,,
04.910,3.145372274,,,
04.912,3.400313127,,,
04.914,3.325330523,,,
04.916,3.26534444,,,
04.918,3.430306169,,,
04.920,3.835212231,,,
04.922,3.730236585,,,
04.924,3.520285294,,,
04.926,3.130375753,,,
04.928,2.815448816,,,
04.930,2.485525358,,,
04.932,2.350556671,,,
04.934,2.440535796,,,
04.936,2.830445337,,,
04.938,3.26534444,,,
04.940,3.580271377,,,
04.942,3.460299211,,,
04.944,3.175365315,,,
04.946,2.875434899,,,
04.948,2.545511441,,,
04.950,2.080619296,,,
04.952,2.200591463,,,
04.954,2.530514921,,,
04.956,2.815448816,,,
04.958,2.845441857,,,
04.960,3.010403586,,,
04.962,3.26534444,,,
04.964,3.190361836,,,
04.966,2.920424462,,,
04.968,2.560507962,,,
04.970,2.365553192,,,
04.972,2.005636692,,,
04.974,2.170598421,,,
04.976,2.725469691,,,
04.978,2.755462733,,,
04.980,3.310334003,,,
04.982,3.355323565,,,
04.984,2.800452295,,,
04.986,2.33556015,,,
04.988,2.5155184,,,
04.990,2.275574067,,,
04.992,1.990640171,,,
04.994,2.320563629,,,
04.996,2.770459253,,,
04.998,3.130375753,,,
05.000,2.980410545,,,
05.002,2.71047317,,,
05.004,2.920424462,,,
05.006,2.635490566,,,
05.008,2.320563629,,,
05.010,2.095615817,,,
05.012,2.170598421,,,
05.014,2.050626255,,,
05.016,2.770459253,,,
05.018,2.905427941,,,
05.020,3.025400107,,,
05.022,3.160368794,,,
05.024,3.26534444,,,
05.026,2.680480129,,,
05.028,2.290570588,,,
05.030,2.230584504,,,
05.032,2.275574067,,,
05.034,2.410542754,,,
05.036,2.650487087,,,
05.038,3.010403586,,,
05.040,3.160368794,,,
05.042,3.07038967,,,
05.044,2.755462733,,,
05.046,2.560507962,,,
05.048,2.185594942,,,
05.050,2.080619296,,,
05.052,2.14060538,,,
05.054,2.275574067,,,
05.056,2.875434899,,,
05.058,3.010403586,,,
05.060,3.160368794,,,
05.062,2.845441857,,,
05.064,3.44530269,,,
05.066,2.395546233,,,
05.068,2.035629734,,,
05.070,2.125608859,,,
05.072,2.33556015,,,
05.074,2.590501004,,,
05.076,2.785455774,,,
05.078,3.025400107,,,
05.080,3.355323565,,,
05.082,2.935420982,,,
05.084,2.800452295,,,
05.086,2.290570588,,,
05.088,2.215587984,,,
05.090,2.290570588,,,
05.092,2.365553192,,,
05.094,2.650487087,,,
05.096,3.055393149,,,
05.098,3.025400107,,,
05.100,2.755462733,,,
05.102,3.025400107,,,
05.104,2.920424462,,,
05.106,2.425539275,,,
05.108,2.245581025,,,
05.110,2.125608859,,,
05.112,2.1556019,,,
05.114,2.365553192,,,
05.116,2.740466212,,,
05.118,3.08538619,,,
05.120,3.08538619,,,
05.122,2.800452295,,,
05.124,2.770459253,,,
05.126,2.530514921,,,
05.128,2.380549712,,,
05.130,2.200591463,,,
05.132,2.1556019,,,
05.134,2.440535796,,,
05.136,2.845441857,,,
05.138,2.950417503,,,
05.140,3.175365315,,,
05.142,2.995407066,,,
05.144,2.875434899,,,
05.146,2.125608859,,,
05.148,1.975643651,,,
05.150,1.930654088,,,
05.152,2.14060538,,,
05.154,2.530514921,,,
05.156,2.89043142,,,
05.158,3.145372274,,,
05.160,3.385316607,,,
05.162,3.115379232,,,
05.164,2.560507962,,,
05.166,2.350556671,,,
05.168,1.825678443,,,
05.170,1.945650609,,,
05.172,2.005636692,,,
05.174,2.485525358,,,
05.176,2.680480129,,,
05.178,2.950417503,,,
05.180,2.980410545,,,
05.182,2.830445337,,,
05.184,2.590501004,,,
05.186,2.425539275,,,
05.188,1.885664526,,,
05.190,2.200591463,,,
05.192,2.215587984,,,
05.194,2.380549712,,,
05.196,2.560507962,,,
05.198,2.740466212,,,
05.200,3.295337482,,,
05.202,3.07038967,,,
05.204,2.650487087,,,
05.206,2.320563629,,,
05.208,2.1556019,,,
05.210,2.410542754,,,
05.212,2.455532317,,,
05.214,2.425539275,,,
05.216,2.785455774,,,
05.218,2.965414024,,,
05.220,2.965414024,,,
05.222,2.875434899,,,
05.224,2.680480129,,,
05.226,2.095615817,,,
05.228,1.810681922,,,
05.230,2.050626255,,,
05.232,2.200591463,,,
05.234,2.560507962,,,
05.236,2.740466212,,,
05.238,2.980410545,,,
05.240,2.995407066,,,
05.242,2.965414024,,,
05.244,2.395546233,,,
05.246,2.005636692,,,
05.248,1.900661047,,,
05.250,2.005636692,,,
05.252,2.230584504,,,
05.254,2.635490566,,,
05.256,2.905427941,,,
05.258,3.100382711,,,
05.260,2.845441857,,,
05.262,2.605497525,,,
05.264,2.560507962,,,
05.266,2.185594942,,,
05.268,2.020633213,,,
05.270,1.870668005,,,
05.272,2.245581025,,,
05.274,2.650487087,,,
05.276,2.980410545,,,
05.278,3.160368794,,,
05.280,3.190361836,,,
05.282,3.250347919,,,
05.284,2.33556015,,,
05.286,2.005636692,,,
05.288,2.125608859,,,
05.290,2.065622776,,,
05.292,1.855671484,,,
05.294,2.545511441,,,
05.296,2.620494045,,,
05.298,2.770459253,,,
05.300,2.785455774,,,
05.302,2.740466212,,,
05.304,2.425539275,,,
05.306,2.500521879,,,
05.308,2.020633213,,,
05.310,1.975643651,,,
05.312,2.110612338,,,
05.314,2.470528837,,,
05.316,2.575504483,,,
05.318,2.770459253,,,
05.320,3.145372274,,,
05.322,3.055393149,,,
05.324,2.530514921,,,
05.326,2.050626255,,,
05.328,2.005636692,,,
05.330,2.245581025,,,
05.332,2.530514921,,,
05.334,2.365553192,,,
05.336,2.650487087,,,
05.338,2.905427941,,,
05.340,2.920424462,,,
05.342,2.485525358,,,
05.344,2.245581025,,,
05.346,2.080619296,,,
05.348,1.945650609,,,
05.350,1.975643651,,,
05.352,2.275574067,,,
05.354,2.635490566,,,
05.356,2.935420982,,,
05.358,3.010403586,,,
05.360,3.010403586,,,
05.362,2.485525358,,,
05.364,2.290570588,,,
05.366,1.78068888,,,
05.368,1.945650609,,,
05.370,1.870668005,,,
05.372,2.33556015,,,
05.374,2.695476649,,,
05.376,3.100382711,,,
05.378,3.025400107,,,
05.380,2.89043142,,,
05.382,2.725469691,,,
05.384,2.455532317,,,
05.386,2.230584504,,,
05.388,1.885664526,,,
05.390,2.170598421,,,
05.392,2.305567108,,,
05.394,2.665483608,,,
05.396,3.010403586,,,
05.398,3.175365315,,,
05.400,2.590501004,,,
05.402,2.650487087,,,
05.404,2.185594942,,,
05.406,1.840674963,,,
05.408,1.915657567,,,
05.410,1.840674963,,,
05.412,2.260577546,,,
05.414,2.755462733,,,
05.416,2.965414024,,,
05.418,2.965414024,,,
05.420,2.500521879,,,
05.422,2.470528837,,,
05.424,2.215587984,,,
05.426,2.080619296,,,
05.428,2.005636692,,,
05.430,1.975643651,,,
05.432,2.800452295,,,
05.434,2.71047317,,,
05.436,2.830445337,,,
05.438,3.160368794,,,
05.440,2.875434899,,,
05.442,2.665483608,,,
05.444,2.320563629,,,
05.446,2.095615817,,,
05.448,1.915657567,,,
05.450,2.365553192,,,
05.452,2.440535796,,,
05.454,2.665483608,,,
05.456,2.980410545,,,
05.458,2.875434899,,,
05.460,2.755462733,,,
05.462,2.500521879,,,
05.464,1.975643651,,,
05.466,2.14060538,,,
05.468,1.990640171,,,
05.470,2.200591463,,,
05.472,2.470528837,,,
05.474,2.530514921,,,
05.476,2.860438378,,,
05.478,3.160368794,,,
05.480,3.145372274,,,
05.482,2.365553192,,,
05.484,2.125608859,,,
05.486,2.065622776,,,
05.488,1.900661047,,,
05.490,2.095615817,,,
05.492,2.605497525,,,
05.494,2.680480129,,,
05.496,3.100382711,,,
05.498,3.250347919,,,
05.500,2.830445337,,,
05.502,2.485525358,,,
05.504,2.455532317,,,
05.506,2.275574067,,,
05.508,2.305567108,,,
05.510,2.14060538,,,
05.512,2.785455774,,,
05.514,3.025400107,,,
05.516,2.995407066,,,
05.518,3.190361836,,,
05.520,2.935420982,,,
05.522,2.71047317,,,
05.524,2.440535796,,,
05.526,2.14060538,,,
05.528,2.125608859,,,
05.530,2.470528837,,,
05.532,3.025400107,,,
05.534,2.995407066,,,
05.536,3.010403586,,,
05.538,3.355323565,,,
05.540,3.040396628,,,
05.542,2.425539275,,,
05.544,2.14060538,,,
05.546,1.750695839,,,
05.548,1.690709755,,,
05.550,2.305567108,,,
05.552,2.575504483,,,
05.554,2.980410545,,,
05.556,3.025400107,,,
05.558,2.995407066,,,
05.560,2.500521879,,,
05.562,2.14060538,,,
05.564,1.990640171,,,
05.566,2.050626255,,,
05.568,2.260577546,,,
05.570,2.170598421,,,
05.572,2.71047317,,,
05.574,2.800452295,,,
05.576,2.845441857,,,
05.578,2.920424462,,,
05.580,2.695476649,,,
05.582,2.410542754,,,
05.584,2.1556019,,,
05.586,1.750695839,,,
05.588,1.690709755,,,
05.590,2.110612338,,,
05.592,2.410542754,,,
05.594,2.995407066,,,
05.596,3.055393149,,,
05.598,2.815448816,,,
05.600,2.620494045,,,
05.602,2.575504483,,,
05.604,1.885664526,,,
05.606,1.915657567,,,
05.608,1.840674963,,,
05.610,2.200591463,,,
05.612,2.275574067,,,
05.614,2.785455774,,,
05.616,2.920424462,,,
05.618,2.770459253,,,
05.620,2.695476649,,,
05.622,2.395546233,,,
05.624,2.095615817,,,
05.626,1.930654088,,,
05.628,1.990640171,,,
05.630,2.065622776,,,
05.632,2.545511441,,,
05.634,2.605497525,,,
05.636,2.965414024,,,
05.638,3.07038967,,,
05.640,2.950417503,,,
05.642,2.380549712,,,
05.644,2.305567108,,,
05.646,1.945650609,,,
05.648,1.660716714,,,
05.650,2.320563629,,,
05.652,2.830445337,,,
05.654,3.685247023,,,
05.656,3.805219189,,,
05.658,3.82021571,,,
05.660,3.475295731,,,
05.662,3.490292252,,,
05.664,3.160368794,,,
05.666,3.415309648,,,
05.668,3.865205272,,,
05.670,3.610264419,,,
05.672,4.045163522,,,
05.674,3.985177439,,,
05.676,3.715240064,,,
05.678,3.535281815,,,
05.680,2.71047317,,,
05.682,2.005636692,,,
05.684,1.900661047,,,
05.686,1.690709755,,,
05.688,1.690709755,,,
05.690,1.870668005,,,
05.692,2.035629734,,,
05.694,1.900661047,,,
05.696,2.350556671,,,
05.698,2.035629734,,,
05.700,1.930654088,,,
05.702,1.885664526,,,
05.704,1.285803694,,,
05.706,1.360786298,,,
05.708,1.765692359,,,
05.710,1.915657567,,,
05.712,2.740466212,,,
05.714,2.680480129,,,
05.716,2.920424462,,,
05.718,2.770459253,,,
05.720,2.920424462,,,
05.722,2.33556015,,,
05.724,1.915657567,,,
05.726,1.900661047,,,
05.728,2.125608859,,,
05.730,2.33556015,,,
05.732,2.620494045,,,
05.734,2.785455774,,,
05.736,2.950417503,,,
05.738,2.560507962,,,
05.740,2.590501004,,,
05.742,2.290570588,,,
05.744,2.170598421,,,
05.746,2.080619296,,,
05.748,2.425539275,,,
05.750,2.305567108,,,
05.752,2.71047317,,,
05.754,3.040396628,,,
05.756,2.950417503,,,
05.758,2.875434899,,,
05.760,2.650487087,,,
05.762,2.33556015,,,
05.764,2.005636692,,,
05.766,2.095615817,,,
05.768,2.1556019,,,
05.770,2.590501004,,,
05.772,3.040396628,,,
05.774,2.71047317,,,
05.776,3.145372274,,,
05.778,2.860438378,,,
05.780,2.665483608,,,
05.782,2.275574067,,,
05.784,2.095615817,,,
05.786,2.260577546,,,
05.788,2.530514921,,,
05.790,2.665483608,,,
05.792,2.935420982,,,
05.794,3.160368794,,,
05.796,3.07038967,,,
05.798,2.965414024,,,
05.800,2.725469691,,,
05.802,2.485525358,,,
05.804,2.050626255,,,
05.806,2.230584504,,,
05.808,2.635490566,,,
05.810,2.530514921,,,
05.812,2.875434899,,,
05.814,2.905427941,,,
05.816,3.025400107,,,
05.818,3.44530269,,,
05.820,3.010403586,,,
05.822,2.410542754,,,
05.824,2.260577546,,,
05.826,2.125608859,,,
05.828,2.455532317,,,
05.830,2.680480129,,,
05.832,3.055393149,,,
05.834,3.340327044,,,
05.836,3.235351398,,,
05.838,3.130375753,,,
05.840,2.770459253,,,
05.842,2.545511441,,,
05.844,2.440535796,,,
05.846,2.470528837,,,
05.848,2.620494045,,,
05.850,3.07038967,,,
05.852,3.490292252,,,
05.854,3.595267898,,,
05.856,3.565274856,,,
05.858,3.325330523,,,
05.860,2.905427941,,,
05.862,2.470528837,,,
05.864,2.560507962,,,
05.866,2.665483608,,,
05.868,2.800452295,,,
05.870,3.370320086,,,
05.872,3.790222668,,,
05.874,4.01517048,,,
05.876,3.940187876,,,
05.878,3.865205272,,,
05.880,3.340327044,,,
05.882,3.07038967,,,
05.884,3.250347919,,,
05.886,3.220354878,,,
05.888,3.340327044,,,
05.890,3.805219189,,,
05.892,3.910194835,,,
05.894,4.210125251,,,
05.896,4.105149605,,,
05.898,4.00017396,,,
05.900,3.745233106,,,
05.902,3.325330523,,,
05.904,3.115379232,,,
05.906,3.355323565,,,
05.908,3.865205272,,,
05.910,4.270111334,,,
05.912,4.495059146,,,
05.914,4.540048709,,,
05.916,4.75,,,
05.918,4.390083501,,,
05.920,3.940187876,,,
05.922,3.64025746,,,
05.924,3.370320086,,,
05.926,3.340327044,,,
05.928,3.700243543,,,
05.930,3.895198314,,,
05.932,4.150139168,,,
05.934,4.345093938,,,
05.936,4.495059146,,,
05.938,4.030167001,,,
05.940,3.700243543,,,
05.942,3.655253981,,,
05.944,3.08538619,,,
05.946,3.130375753,,,
05.948,3.325330523,,,
05.950,3.745233106,,,
05.952,3.985177439,,,
05.954,3.790222668,,,
05.956,3.505288773,,,
05.958,3.685247023,,,
05.960,3.190361836,,,
05.962,2.620494045,,,
05.964,2.635490566,,,
05.966,2.560507962,,,
05.968,2.785455774,,,
05.970,2.950417503,,,
05.972,3.580271377,,,
05.974,3.310334003,,,
05.976,3.175365315,,,
05.978,3.100382711,,,
05.980,2.410542754,,,
05.982,2.230584504,,,
05.984,2.33556015,,,
05.986,2.560507962,,,
05.988,2.740466212,,,
05.990,2.980410545,,,
05.992,3.115379232,,,
05.994,3.250347919,,,
05.996,3.100382711,,,
05.998,2.845441857,,,
06.000,2.560507962,,,
06.002,2.095615817,,,
06.004,1.990640171,,,
06.006,2.380549712,,,
06.008,2.500521879,,,
06.010,2.725469691,,,
06.012,3.130375753,,,
06.014,3.07038967,,,
06.016,2.935420982,,,
06.018,2.725469691,,,
06.020,2.365553192,,,
06.022,2.33556015,,,
06.024,2.005636692,,,
06.026,2.380549712,,,
06.028,2.635490566,,,
06.030,2.740466212,,,
06.032,3.430306169,,,
06.034,3.145372274,,,
06.036,2.89043142,,,
06.038,2.485525358,,,
06.040,2.395546233,,,
06.042,2.110612338,,,
06.044,1.96064713,,,
06.046,2.125608859,,,
06.048,2.815448816,,,
06.050,3.160368794,,,
06.052,3.040396628,,,
06.054,3.190361836,,,
06.056,2.905427941,,,
06.058,2.695476649,,,
06.060,2.500521879,,,
06.062,2.065622776,,,
06.064,1.750695839,,,
06.066,2.410542754,,,
06.068,2.560507962,,,
06.070,2.905427941,,,
06.072,3.040396628,,,
06.074,3.07038967,,,
06.076,2.965414024,,,
06.078,2.545511441,,,
06.080,2.5155184,,,
06.082,2.395546233,,,
06.084,2.275574067,,,
06.086,2.260577546,,,
06.088,2.590501004,,,
06.090,2.980410545,,,
06.092,2.920424462,,,
06.094,3.115379232,,,
06.096,3.010403586,,,
06.098,2.635490566,,,
06.100,2.395546233,,,
06.102,2.275574067,,,
06.104,2.080619296,,,
06.106,2.080619296,,,
06.108,2.620494045,,,
06.110,3.07038967,,,
06.112,3.07038967,,,
06.114,3.025400107,,,
06.116,2.980410545,,,
06.118,2.71047317,,,
06.120,2.230584504,,,
06.122,2.185594942,,,
06.124,2.800452295,,,
06.126,2.33556015,,,
06.128,2.755462733,,,
06.130,2.815448816,,,
06.132,2.695476649,,,
06.134,2.860438378,,,
06.136,2.545511441,,,
06.138,2.560507962,,,
06.140,2.395546233,,,
06.142,2.005636692,,,
06.144,2.095615817,,,
06.146,2.275574067,,,
06.148,2.590501004,,,
06.150,2.830445337,,,
06.152,2.950417503,,,
06.154,2.89043142,,,
06.156,2.755462733,,,
06.158,2.770459253,,,
06.160,2.275574067,,,
06.162,2.125608859,,,
06.164,2.215587984,,,
06.166,2.470528837,,,
06.168,2.365553192,,,
06.170,2.665483608,,,
06.172,2.800452295,,,
06.174,2.935420982,,,
06.176,2.800452295,,,
06.178,2.485525358,,,
06.180,2.200591463,,,
06.182,1.990640171,,,
06.184,1.915657567,,,
06.186,2.245581025,,,
06.188,2.545511441,,,
06.190,2.920424462,,,
06.192,3.205358357,,,
06.194,2.860438378,,,
06.196,2.770459253,,,
06.198,2.350556671,,,
06.200,1.945650609,,,
06.202,1.735699318,,,
06.204,2.110612338,,,
06.206,2.5155184,,,
06.208,2.425539275,,,
06.210,2.980410545,,,
06.212,3.280340961,,,
06.214,2.965414024,,,
06.216,2.935420982,,,
06.218,2.500521879,,,
06.220,1.900661047,,,
06.222,2.125608859,,,
06.224,2.050626255,,,
06.226,2.350556671,,,
06.228,2.620494045,,,
06.230,2.950417503,,,
06.232,2.845441857,,,
06.234,2.830445337,,,
06.236,2.635490566,,,
06.238,2.455532317,,,
06.240,2.215587984,,,
06.242,1.870668005,,,
06.244,1.990640171,,,
06.246,2.125608859,,,
06.248,2.845441857,,,
06.250,2.785455774,,,
06.252,3.295337482,,,
06.254,2.905427941,,,
06.256,2.590501004,,,
06.258,2.290570588,,,
06.260,1.750695839,,,
06.262,2.095615817,,,
06.264,2.320563629,,,
06.266,2.290570588,,,
06.268,2.5155184,,,
06.270,2.860438378,,,
06.272,3.025400107,,,
06.274,2.89043142,,,
06.276,2.620494045,,,
06.278,2.080619296,,,
06.280,1.825678443,,,
06.282,1.945650609,,,
06.284,2.1556019,,,
06.286,2.110612338,,,
06.288,2.500521879,,,
06.290,2.980410545,,,
06.292,2.980410545,,,
06.294,2.845441857,,,
06.296,2.785455774,,,
06.298,2.275574067,,,
06.300,2.020633213,,,
06.302,2.020633213,,,
06.304,2.050626255,,,
06.306,2.320563629,,,
06.308,2.755462733,,,
06.310,2.71047317,,,
06.312,2.935420982,,,
06.314,2.725469691,,,
06.316,2.680480129,,,
06.318,2.455532317,,,
06.320,2.095615817,,,
06.322,2.035629734,,,
06.324,2.215587984,,,
06.326,2.5155184,,,
06.328,2.785455774,,,
06.330,3.040396628,,,
06.332,2.815448816,,,
06.334,2.740466212,,,
06.336,2.650487087,,,
06.338,2.725469691,,,
06.340,2.185594942,,,
06.342,1.840674963,,,
06.344,1.975643651,,,
06.346,2.230584504,,,
06.348,2.680480129,,,
06.350,3.08538619,,,
06.352,2.920424462,,,
06.354,2.755462733,,,
06.356,2.755462733,,,
06.358,2.485525358,,,
06.360,2.170598421,,,
06.362,2.050626255,,,
06.364,2.065622776,,,
06.366,2.425539275,,,
06.368,2.785455774,,,
06.370,3.025400107,,,
06.372,3.340327044,,,
06.374,2.89043142,,,
06.376,2.215587984,,,
06.378,1.840674963,,,
06.380,1.915657567,,,
06.382,1.915657567,,,
06.384,2.275574067,,,
06.386,2.380549712,,,
06.388,2.590501004,,,
06.390,3.100382711,,,
06.392,3.115379232,,,
06.394,2.740466212,,,
06.396,2.590501004,,,
06.398,2.035629734,,,
06.400,1.900661047,,,
06.402,1.930654088,,,
06.404,2.1556019,,,
06.406,2.590501004,,,
06.408,2.980410545,,,
06.410,2.785455774,,,
06.412,2.875434899,,,
06.414,2.965414024,,,
06.416,2.725469691,,,
06.418,2.260577546,,,
06.420,2.14060538,,,
06.422,2.1556019,,,
06.424,2.1556019,,,
06.426,2.635490566,,,
06.428,3.160368794,,,
06.430,3.010403586,,,
06.432,2.815448816,,,
06.434,2.695476649,,,
06.436,2.275574067,,,
06.438,2.33556015,,,
06.440,1.675713235,,,
06.442,2.5155184,,,
06.444,2.320563629,,,
06.446,2.245581025,,,
06.448,2.725469691,,,
06.450,3.040396628,,,
06.452,2.950417503,,,
06.454,2.875434899,,,
06.456,2.590501004,,,
06.458,2.230584504,,,
06.460,2.005636692,,,
06.462,2.14060538,,,
06.464,2.110612338,,,
06.466,2.500521879,,,
06.468,2.860438378,,,
06.470,2.905427941,,,
06.472,2.785455774,,,
06.474,2.830445337,,,
06.476,2.470528837,,,
06.478,2.050626255,,,
06.480,1.990640171,,,
06.482,1.900661047,,,
06.484,2.020633213,,,
06.486,2.665483608,,,
06.488,2.845441857,,,
06.490,2.875434899,,,
06.492,2.815448816,,,
06.494,2.860438378,,,
06.496,2.530514921,,,
06.498,2.275574067,,,
06.500,2.020633213,,,
06.502,2.230584504,,,
06.504,2.365553192,,,
06.506,2.635490566,,,
06.508,2.935420982,,,
06.510,3.26534444,,,
06.512,2.920424462,,,
06.514,3.010403586,,,
06.516,2.860438378,,,
06.518,2.095615817,,,
06.520,1.900661047,,,
06.522,2.320563629,,,
06.524,2.695476649,,,
06.526,2.89043142,,,
06.528,2.845441857,,,
06.530,2.815448816,,,
06.532,2.995407066,,,
06.534,2.830445337,,,
06.536,2.5155184,,,
06.538,2.290570588,,,
06.540,2.33556015,,,
06.542,2.185594942,,,
06.544,2.500521879,,,
06.546,2.89043142,,,
06.548,3.220354878,,,
06.550,3.550278335,,,
06.552,3.115379232,,,
06.554,2.800452295,,,
06.556,2.365553192,,,
06.558,2.170598421,,,
06.560,1.930654088,,,
06.562,2.065622776,,,
06.564,1.96064713,,,
06.566,2.725469691,,,
06.568,2.905427941,,,
06.570,2.935420982,,,
06.572,2.950417503,,,
06.574,2.725469691,,,
06.576,2.185594942,,,
06.578,2.1556019,,,
06.580,1.885664526,,,
06.582,2.065622776,,,
06.584,2.395546233,,,
06.586,2.71047317,,,
06.588,2.965414024,,,
06.590,3.010403586,,,
06.592,2.410542754,,,
06.594,2.785455774,,,
06.596,2.215587984,,,
06.598,1.885664526,,,
06.600,1.825678443,,,
06.602,2.14060538,,,
06.604,2.395546233,,,
06.606,2.725469691,,,
06.608,2.785455774,,,
06.610,3.100382711,,,
06.612,2.665483608,,,
06.614,2.560507962,,,
06.616,2.185594942,,,
06.618,2.200591463,,,
06.620,1.870668005,,,
06.622,2.080619296,,,
06.624,2.350556671,,,
06.626,2.800452295,,,
06.628,2.740466212,,,
06.630,2.680480129,,,
06.632,2.575504483,,,
06.634,2.530514921,,,
06.636,2.050626255,,,
06.638,1.990640171,,,
06.640,1.855671484,,,
06.642,2.1556019,,,
06.644,2.245581025,,,
06.646,2.650487087,,,
06.648,3.100382711,,,
06.650,2.905427941,,,
06.652,2.695476649,,,
06.654,2.845441857,,,
06.656,2.065622776,,,
06.658,1.945650609,,,
06.660,1.630723672,,,
06.662,2.095615817,,,
06.664,2.380549712,,,
06.666,3.490292252,,,
06.668,3.655253981,,,
06.670,3.400313127,,,
06.672,3.700243543,,,
06.674,3.430306169,,,
06.676,3.310334003,,,
06.678,3.310334003,,,
06.680,3.400313127,,,
06.682,3.715240064,,,
06.684,3.790222668,,,
06.686,3.82021571,,,
06.688,3.805219189,,,
06.690,3.460299211,,,
06.692,3.190361836,,,
06.694,2.71047317,,,
06.696,2.320563629,,,
06.698,1.630723672,,,
06.700,1.570737589,,,
06.702,1.690709755,,,
06.704,1.810681922,,,
06.706,2.035629734,,,
06.708,2.095615817,,,
06.710,2.170598421,,,
06.712,2.095615817,,,
06.714,1.930654088,,,
06.716,1.60073063,,,
06.718,1.510751506,,,
06.720,1.525748026,,,
06.722,1.735699318,,,
06.724,2.1556019,,,
06.726,2.530514921,,,
06.728,2.755462733,,,
06.730,2.665483608,,,
06.732,2.665483608,,,
06.734,2.245581025,,,
06.736,2.080619296,,,
06.738,1.735699318,,,
06.740,1.900661047,,,
06.742,2.110612338,,,
06.744,2.620494045,,,
06.746,2.860438378,,,
06.748,2.770459253,,,
06.750,3.100382711,,,
06.752,2.770459253,,,
06.754,2.095615817,,,
06.756,2.590501004,,,
06.758,2.170598421,,,
06.760,1.96064713,,,
06.762,1.840674963,,,
06.764,2.320563629,,,
06.766,2.560507962,,,
06.768,2.905427941,,,
06.770,2.680480129,,,
06.772,2.800452295,,,
06.774,2.320563629,,,
06.776,2.260577546,,,
06.778,2.245581025,,,
06.780,2.1556019,,,
06.782,2.080619296,,,
06.784,2.605497525,,,
06.786,2.785455774,,,
06.788,2.89043142,,,
06.790,2.920424462,,,
06.792,2.770459253,,,
06.794,2.440535796,,,
06.796,2.050626255,,,
06.798,1.765692359,,,
06.800,2.095615817,,,
06.802,2.260577546,,,
06.804,2.620494045,,,
06.806,2.740466212,,,
06.808,2.980410545,,,
06.810,3.07038967,,,
06.812,2.860438378,,,
06.814,2.440535796,,,
06.816,2.095615817,,,
06.818,1.825678443,,,
06.820,1.990640171,,,
06.822,2.260577546,,,
06.824,2.725469691,,,
06.826,3.055393149,,,
06.828,3.025400107,,,
06.830,3.115379232,,,
06.832,2.905427941,,,
06.834,2.605497525,,,
06.836,2.425539275,,,
06.838,2.230584504,,,
06.840,2.170598421,,,
06.842,2.5155184,,,
06.844,2.770459253,,,
06.846,3.130375753,,,
06.848,3.325330523,,,
06.850,3.07038967,,,
06.852,2.920424462,,,
06.854,2.410542754,,,
06.856,2.350556671,,,
06.858,2.275574067,,,
06.860,2.365553192,,,
06.862,2.605497525,,,
06.864,3.010403586,,,
06.866,3.145372274,,,
06.868,3.130375753,,,
06.870,3.26534444,,,
06.872,3.295337482,,,
06.874,2.605497525,,,
06.876,2.410542754,,,
06.878,2.5155184,,,
06.880,2.5155184,,,
06.882,2.740466212,,,
06.884,3.460299211,,,
06.886,3.550278335,,,
06.888,3.82021571,,,
06.890,3.580271377,,,
06.892,3.415309648,,,
06.894,2.995407066,,,
06.896,2.695476649,,,
06.898,2.755462733,,,
06.900,2.905427941,,,
06.902,3.26534444,,,
06.904,3.580271377,,,
06.906,3.775226148,,,
06.908,4.19512873,,,
06.910,4.19512873,,,
06.912,3.655253981,,,
06.914,3.295337482,,,
06.916,3.160368794,,,
06.918,3.130375753,,,
06.920,3.250347919,,,
06.922,3.580271377,,,
06.924,4.135142647,,,
06.926,4.165135689,,,
06.928,4.300104376,,,
06.930,4.240118293,,,
06.932,3.985177439,,,
06.934,3.685247023,,,
06.936,3.280340961,,,
06.938,3.385316607,,,
06.940,3.355323565,,,
06.942,3.520285294,,,
06.944,3.775226148,,,
06.946,4.240118293,,,
06.948,4.690013917,,,
06.950,4.255114813,,,
06.952,3.775226148,,,
06.954,2.980410545,,,
06.956,3.130375753,,,
06.958,2.740466212,,,
06.960,2.965414024,,,
06.962,3.475295731,,,
06.964,3.595267898,,,
06.966,3.700243543,,,
06.968,3.730236585,,,
06.970,3.385316607,,,
06.972,3.220354878,,,
06.974,2.950417503,,,
06.976,2.605497525,,,
06.978,2.245581025,,,
06.980,2.575504483,,,
06.982,2.770459253,,,
06.984,3.07038967,,,
06.986,3.250347919,,,
06.988,3.400313127,,,
06.990,3.205358357,,,
06.992,2.830445337,,,
06.994,2.380549712,,,
06.996,2.320563629,,,
06.998,2.215587984,,,
07.000,2.185594942,,,
07.002,2.485525358,,,
07.004,2.635490566,,,
07.006,2.935420982,,,
07.008,3.115379232,,,
07.010,2.965414024,,,
07.012,2.680480129,,,
07.014,2.170598421,,,
07.016,2.005636692,,,
07.018,2.125608859,,,
07.020,2.245581025,,,
07.022,2.800452295,,,
07.024,2.785455774,,,
07.026,2.740466212,,,
07.028,3.115379232,,,
07.030,2.755462733,,,
07.032,2.380549712,,,
07.034,1.900661047,,,
07.036,2.185594942,,,
07.038,2.125608859,,,
07.040,2.065622776,,,
07.042,2.485525358,,,
07.044,3.025400107,,,
07.046,2.830445337,,,
07.048,2.830445337,,,
07.050,2.830445337,,,
07.052,2.365553192,,,
07.054,1.900661047,,,
07.056,1.96064713,,,
07.058,2.14060538,,,
07.060,2.005636692,,,
07.062,2.33556015,,,
07.064,3.250347919,,,
07.066,3.415309648,,,
07.068,2.755462733,,,
07.070,2.455532317,,,
07.072,2.485525358,,,
07.074,2.125608859,,,
07.076,1.720702797,,,
07.078,2.095615817,,,
07.080,2.290570588,,,
07.082,2.71047317,,,
07.084,3.025400107,,,
07.086,3.08538619,,,
07.088,2.950417503,,,
07.090,2.665483608,,,
07.092,2.080619296,,,
07.094,2.080619296,,,
07.096,1.870668005,,,
07.098,1.885664526,,,
07.100,2.125608859,,,
07.102,2.530514921,,,
07.104,3.190361836,,,
07.106,3.115379232,,,
07.108,2.800452295,,,
07.110,2.935420982,,,
07.112,2.170598421,,,
07.114,1.990640171,,,
07.116,2.035629734,,,
07.118,2.005636692,,,
07.120,2.125608859,,,
07.122,2.440535796,,,
07.124,2.800452295,,,
07.126,3.07038967,,,
07.128,2.755462733,,,
07.130,2.455532317,,,
07.132,2.425539275,,,
07.134,2.1556019,,,
07.136,2.260577546,,,
07.138,1.885664526,,,
07.140,2.1556019,,,
07.142,2.830445337,,,
07.144,2.635490566,,,
07.146,2.815448816,,,
07.148,2.770459253,,,
07.150,2.815448816,,,
07.152,2.71047317,,,
07.154,2.275574067,,,
07.156,2.005636692,,,
07.158,1.750695839,,,
07.160,2.095615817,,,
07.162,2.605497525,,,
07.164,2.815448816,,,
07.166,2.5155184,,,
07.168,3.08538619,,,
07.170,2.500521879,,,
07.172,2.14060538,,,
07.174,2.050626255,,,
07.176,1.735699318,,,
07.178,1.885664526,,,
07.180,2.095615817,,,
07.182,2.635490566,,,
07.184,2.905427941,,,
07.186,3.115379232,,,
07.188,2.830445337,,,
07.190,2.695476649,,,
07.192,2.185594942,,,
07.194,1.645720193,,,
07.196,1.60073063,,,
07.198,1.855671484,,,
07.200,2.245581025,,,
07.202,2.785455774,,,
07.204,2.860438378,,,
07.206,2.980410545,,,
07.208,2.650487087,,,
07.210,2.590501004,,,
07.212,2.020633213,,,
07.214,1.855671484,,,
07.216,1.825678443,,,
07.218,2.095615817,,,
07.220,2.305567108,,,
07.222,2.680480129,,,
07.224,3.040396628,,,
07.226,3.145372274,,,
07.228,2.875434899,,,
07.230,2.365553192,,,
07.232,2.110612338,,,
07.234,1.96064713,,,
07.236,1.975643651,,,
07.238,1.78068888,,,
07.240,2.350556671,,,
07.242,2.560507962,,,
07.244,2.545511441,,,
07.246,2.950417503,,,
07.248,2.860438378,,,
07.250,2.590501004,,,
07.252,2.095615817,,,
07.254,1.735699318,,,
07.256,1.840674963,,,
07.258,1.915657567,,,
07.260,2.1556019,,,
07.262,2.71047317,,,
07.264,2.665483608,,,
07.266,2.875434899,,,
07.268,2.71047317,,,
07.270,2.080619296,,,
07.272,2.035629734,,,
07.274,2.095615817,,,
07.276,1.885664526,,,
07.278,1.675713235,,,
07.280,2.125608859,,,
07.282,2.590501004,,,
07.284,2.845441857,,,
07.286,2.740466212,,,
07.288,2.650487087,,,
07.290,2.425539275,,,
07.292,2.260577546,,,
07.294,2.005636692,,,
07.296,1.930654088,,,
07.298,2.33556015,,,
07.300,2.365553192,,,
07.302,2.33556015,,,
07.304,2.725469691,,,
07.306,2.935420982,,,
07.308,2.500521879,,,
07.310,2.470528837,,,
07.312,1.885664526,,,
07.314,1.690709755,,,
07.316,1.825678443,,,
07.318,2.005636692,,,
07.320,2.365553192,,,
07.322,3.040396628,,,
07.324,3.26534444,,,
07.326,2.965414024,,,
07.328,2.740466212,,,
07.330,2.110612338,,,
07.332,1.705706276,,,
07.334,1.735699318,,,
07.336,1.885664526,,,
07.338,2.14060538,,,
07.340,2.185594942,,,
07.342,2.71047317,,,
07.344,2.920424462,,,
07.346,2.695476649,,,
07.348,2.680480129,,,
07.350,2.305567108,,,
07.352,2.050626255,,,
07.354,1.930654088,,,
07.356,1.750695839,,,
07.358,1.840674963,,,
07.360,2.410542754,,,
07.362,2.770459253,,,
07.364,2.830445337,,,
07.366,2.605497525,,,
07.368,2.695476649,,,
07.370,2.350556671,,,
07.372,1.945650609,,,
07.374,1.855671484,,,
07.376,1.96064713,,,
07.378,2.080619296,,,
07.380,2.680480129,,,
07.382,2.695476649,,,
07.384,2.860438378,,,
07.386,2.815448816,,,
07.388,2.665483608,,,
07.390,2.170598421,,,
07.392,1.735699318,,,
07.394,1.630723672,,,
07.396,1.720702797,,,
07.398,2.215587984,,,
07.400,2.725469691,,,
07.402,2.995407066,,,
07.404,2.785455774,,,
07.406,2.875434899,,,
07.408,2.425539275,,,
07.410,2.260577546,,,
07.412,1.735699318,,,
07.414,1.345789777,,,
07.416,2.260577546,,,
07.418,1.930654088,,,
07.420,2.33556015,,,
07.422,2.620494045,,,
07.424,2.740466212,,,
07.426,2.815448816,,,
07.428,2.590501004,,,
07.430,2.260577546,,,
07.432,1.735699318,,,
07.434,1.825678443,,,
07.436,2.065622776,,,
07.438,2.095615817,,,
07.440,2.605497525,,,
07.442,2.455532317,,,
07.444,2.845441857,,,
07.446,2.830445337,,,
07.448,2.590501004,,,
07.450,2.410542754,,,
07.452,1.990640171,,,
07.454,1.78068888,,,
07.456,1.630723672,,,
07.458,2.14060538,,,
07.460,2.590501004,,,
07.462,2.620494045,,,
07.464,2.845441857,,,
07.466,2.605497525,,,
07.468,2.590501004,,,
07.470,2.095615817,,,
07.472,1.885664526,,,
07.474,1.825678443,,,
07.476,1.990640171,,,
07.478,2.14060538,,,
07.480,2.530514921,,,
07.482,2.785455774,,,
07.484,2.680480129,,,
07.486,2.995407066,,,
07.488,2.425539275,,,
07.490,2.305567108,,,
07.492,1.885664526,,,
07.494,1.795685401,,,
07.496,1.96064713,,,
07.498,2.395546233,,,
07.500,2.605497525,,,
07.502,2.485525358,,,
07.504,2.5155184,,,
07.506,2.725469691,,,
07.508,2.695476649,,,
07.510,2.110612338,,,
07.512,1.675713235,,,
07.514,1.750695839,,,
07.516,1.870668005,,,
07.518,2.260577546,,,
07.520,2.635490566,,,
07.522,2.71047317,,,
07.524,2.935420982,,,
07.526,2.980410545,,,
07.528,2.725469691,,,
07.530,2.350556671,,,
07.532,1.78068888,,,
07.534,2.020633213,,,
07.536,2.065622776,,,
07.538,2.1556019,,,
07.540,2.740466212,,,
07.542,3.250347919,,,
07.544,2.995407066,,,
07.546,2.935420982,,,
07.548,2.590501004,,,
07.550,2.305567108,,,
07.552,2.200591463,,,
07.554,1.750695839,,,
07.556,2.080619296,,,
07.558,2.320563629,,,
07.560,2.740466212,,,
07.562,2.89043142,,,
07.564,2.71047317,,,
07.566,2.545511441,,,
07.568,2.635490566,,,
07.570,2.545511441,,,
07.572,2.065622776,,,
07.574,1.900661047,,,
07.576,1.96064713,,,
07.578,2.1556019,,,
07.580,2.800452295,,,
07.582,2.905427941,,,
07.584,2.665483608,,,
07.586,2.425539275,,,
07.588,2.425539275,,,
07.590,2.035629734,,,
07.592,1.78068888,,,
07.594,1.945650609,,,
07.596,2.095615817,,,
07.598,2.290570588,,,
07.600,2.620494045,,,
07.602,2.560507962,,,
07.604,2.860438378,,,
07.606,2.680480129,,,
07.608,2.365553192,,,
07.610,1.930654088,,,
07.612,1.810681922,,,
07.614,1.840674963,,,
07.616,2.095615817,,,
07.618,2.485525358,,,
07.620,2.410542754,,,
07.622,2.605497525,,,
07.624,2.905427941,,,
07.626,2.635490566,,,
07.628,2.185594942,,,
07.630,1.915657567,,,
07.632,1.78068888,,,
07.634,1.690709755,,,
07.636,1.825678443,,,
07.638,1.795685401,,,
07.640,2.470528837,,,
07.642,2.845441857,,,
07.644,2.71047317,,,
07.646,2.545511441,,,
07.648,2.170598421,,,
07.650,2.305567108,,,
07.652,1.900661047,,,
07.654,1.855671484,,,
07.656,2.200591463,,,
07.658,2.545511441,,,
07.660,2.590501004,,,
07.662,2.785455774,,,
07.664,2.815448816,,,
07.666,2.5155184,,,
07.668,2.530514921,,,
07.670,2.110612338,,,
07.672,2.185594942,,,
07.674,2.395546233,,,
07.676,2.740466212,,,
07.678,3.26534444,,,
07.680,3.955184397,,,
07.682,3.760229627,,,
07.684,4.225121772,,,
07.686,4.405080021,,,
07.688,3.730236585,,,
07.690,3.310334003,,,
07.692,2.965414024,,,
07.694,2.830445337,,,
07.696,2.620494045,,,
07.698,2.680480129,,,
07.700,2.845441857,,,
07.702,2.830445337,,,
07.704,2.440535796,,,
07.706,2.125608859,,,
07.708,1.765692359,,,
07.710,1.120841965,,,
07.712,0.910890673,,,
07.714,1.360786298,,,
07.716,1.360786298,,,
07.718,1.525748026,,,
07.720,1.900661047,,,
07.722,2.170598421,,,
07.724,2.410542754,,,
07.726,2.395546233,,,
07.728,1.840674963,,,
07.730,1.615727151,,,
07.732,1.690709755,,,
07.734,1.855671484,,,
07.736,1.855671484,,,
07.738,2.605497525,,,
07.740,2.71047317,,,
07.742,2.680480129,,,
07.744,2.740466212,,,
07.746,2.755462733,,,
07.748,2.125608859,,,
07.750,2.005636692,,,
07.752,1.705706276,,,
07.754,1.810681922,,,
07.756,1.96064713,,,
07.758,2.410542754,,,
07.760,2.71047317,,,
07.762,2.860438378,,,
07.764,2.830445337,,,
07.766,2.920424462,,,
07.768,2.125608859,,,
07.770,1.660716714,,,
07.772,2.020633213,,,
07.774,2.065622776,,,
07.776,2.110612338,,,
07.778,2.635490566,,,
07.780,2.830445337,,,
07.782,2.755462733,,,
07.784,2.860438378,,,
07.786,2.650487087,,,
07.788,2.035629734,,,
07.790,1.645720193,,,
07.792,1.945650609,,,
07.794,2.065622776,,,
07.796,2.350556671,,,
07.798,2.815448816,,,
07.800,2.770459253,,,
07.802,2.980410545,,,
07.804,2.815448816,,,
07.806,2.605497525,,,
07.808,2.110612338,,,
07.810,1.78068888,,,
07.812,1.900661047,,,
07.814,2.065622776,,,
07.816,2.14060538,,,
07.818,2.470528837,,,
07.820,2.770459253,,,
07.822,2.89043142,,,
07.824,2.755462733,,,
07.826,2.785455774,,,
07.828,2.260577546,,,
07.830,1.870668005,,,
07.832,1.660716714,,,
07.834,2.170598421,,,
07.836,2.290570588,,,
07.838,2.770459253,,,
07.840,2.830445337,,,
07.842,2.785455774,,,
07.844,2.845441857,,,
07.846,2.530514921,,,
07.848,2.365553192,,,
07.850,2.005636692,,,
07.852,2.005636692,,,
07.854,2.110612338,,,
07.856,2.605497525,,,
07.858,2.905427941,,,
07.860,3.340327044,,,
07.862,3.370320086,,,
07.864,3.26534444,,,
07.866,2.410542754,,,
07.868,2.365553192,,,
07.870,2.065622776,,,
07.872,2.215587984,,,
07.874,2.425539275,,,
07.876,2.905427941,,,
07.878,3.025400107,,,
07.880,3.340327044,,,
07.882,3.790222668,,,
07.884,3.115379232,,,
07.886,2.815448816,,,
07.888,2.260577546,,,
07.890,2.33556015,,,
07.892,2.590501004,,,
07.894,2.650487087,,,
07.896,2.815448816,,,
07.898,3.550278335,,,
07.900,3.850208752,,,
07.902,3.865205272,,,
07.904,3.730236585,,,
07.906,3.220354878,,,
07.908,2.845441857,,,
07.910,2.635490566,,,
07.912,2.815448816,,,
07.914,3.08538619,,,
07.916,3.310334003,,,
07.918,3.655253981,,,
07.920,4.045163522,,,
07.922,3.805219189,,,
07.924,3.805219189,,,
07.926,3.415309648,,,
07.928,3.205358357,,,
07.930,3.26534444,,,
07.932,3.100382711,,,
07.934,3.550278335,,,
07.936,3.790222668,,,
07.938,3.655253981,,,
07.940,4.180132209,,,
07.942,4.150139168,,,
07.944,3.880201793,,,
07.946,3.700243543,,,
07.948,3.280340961,,,
07.950,2.995407066,,,
07.952,3.07038967,,,
07.954,3.520285294,,,
07.956,3.580271377,,,
07.958,3.715240064,,,
07.960,4.315100897,,,
07.962,4.255114813,,,
07.964,3.625260939,,,
07.966,3.115379232,,,
07.968,2.920424462,,,
07.970,2.650487087,,,
07.972,2.935420982,,,
07.974,3.040396628,,,
07.976,2.860438378,,,
07.978,3.490292252,,,
07.980,3.550278335,,,
07.982,3.325330523,,,
07.984,3.07038967,,,
07.986,2.575504483,,,
07.988,2.275574067,,,
07.990,2.33556015,,,
07.992,2.485525358,,,
07.994,2.5155184,,,
07.996,2.815448816,,,
07.998,2.725469691,,,
08.000,2.815448816,,,
08.002,2.995407066,,,
08.004,2.665483608,,,
08.006,2.245581025,,,
08.008,1.870668005,,,
08.010,1.58573411,,,
08.012,2.050626255,,,
08.014,2.245581025,,,
08.016,2.350556671,,,
08.018,2.860438378,,,
08.020,2.770459253,,,
08.022,2.950417503,,,
08.024,2.33556015,,,
08.026,2.1556019,,,
08.028,1.840674963,,,
08.030,1.675713235,,,
08.032,1.810681922,,,
08.034,2.095615817,,,
08.036,2.470528837,,,
08.038,2.485525358,,,
08.040,2.395546233,,,
08.042,2.575504483,,,
08.044,2.800452295,,,
08.046,2.215587984,,,
08.048,2.1556019,,,
08.050,1.720702797,,,
08.052,1.96064713,,,
08.054,2.065622776,,,
08.056,2.350556671,,,
08.058,2.740466212,,,
08.060,2.860438378,,,
08.062,2.800452295,,,
08.064,2.620494045,,,
08.066,2.320563629,,,
08.068,1.555741068,,,
08.070,1.810681922,,,
08.072,1.765692359,,,
08.074,1.945650609,,,
08.076,2.260577546,,,
08.078,2.755462733,,,
08.080,2.89043142,,,
08.082,2.920424462,,,
08.084,2.5155184,,,
08.086,1.930654088,,,
08.088,1.435768902,,,
08.090,1.555741068,,,
08.092,2.095615817,,,
08.094,2.200591463,,,
08.096,2.740466212,,,
08.098,2.770459253,,,
08.100,2.740466212,,,
08.102,2.350556671,,,
08.104,2.485525358,,,
08.106,1.870668005,,,
08.108,1.540744547,,,
08.110,1.570737589,,,
08.112,2.005636692,,,
08.114,2.110612338,,,
08.116,2.71047317,,,
08.118,2.530514921,,,
08.120,2.815448816,,,
08.122,2.785455774,,,
08.124,2.215587984,,,
08.126,2.065622776,,,
08.128,2.050626255,,,
08.130,1.540744547,,,
08.132,1.855671484,,,
08.134,2.260577546,,,
08.136,2.740466212,,,
08.138,2.620494045,,,
08.140,2.500521879,,,
08.142,2.260577546,,,
08.144,2.395546233,,,
08.146,1.855671484,,,
08.148,1.840674963,,,
08.150,1.690709755,,,
08.152,1.78068888,,,
08.154,2.485525358,,,
08.156,2.620494045,,,
08.158,2.590501004,,,
08.160,2.500521879,,,
08.162,2.770459253,,,
08.164,2.1556019,,,
08.166,2.170598421,,,
08.168,1.60073063,,,
08.170,1.855671484,,,
08.172,1.750695839,,,
08.174,2.020633213,,,
08.176,2.230584504,,,
08.178,2.815448816,,,
08.180,2.5155184,,,
08.182,2.5155184,,,
08.184,2.110612338,,,
08.186,1.690709755,,,
08.188,1.540744547,,,
08.190,1.555741068,,,
08.192,1.78068888,,,
08.194,2.095615817,,,
08.196,2.560507962,,,
08.198,2.725469691,,,
08.200,2.560507962,,,
08.202,2.410542754,,,
08.204,1.990640171,,,
08.206,1.525748026,,,
08.208,1.360786298,,,
08.210,1.495754985,,,
08.212,1.765692359,,,
08.214,2.305567108,,,
08.216,2.350556671,,,
08.218,2.5155184,,,
08.220,2.800452295,,,
08.222,2.380549712,,,
08.224,2.005636692,,,
08.226,1.690709755,,,
08.228,1.675713235,,,
08.230,1.465761943,,,
08.232,1.720702797,,,
08.234,2.035629734,,,
08.236,2.110612338,,,
08.238,2.455532317,,,
08.240,2.935420982,,,
08.242,2.275574067,,,
08.244,1.630723672,,,
08.246,1.555741068,,,
08.248,1.510751506,,,
08.250,1.840674963,,,
08.252,1.810681922,,,
08.254,2.320563629,,,
08.256,2.620494045,,,
08.258,2.800452295,,,
08.260,2.440535796,,,
08.262,2.215587984,,,
08.264,1.78068888,,,
08.266,1.375782818,,,
08.268,1.465761943,,,
08.270,1.615727151,,,
08.272,1.855671484,,,
08.274,2.050626255,,,
08.276,2.290570588,,,
08.278,2.380549712,,,
08.280,2.395546233,,,
08.282,2.230584504,,,
08.284,1.885664526,,,
08.286,1.525748026,,,
08.288,1.435768902,,,
08.290,1.375782818,,,
08.292,1.60073063,,,
08.294,2.065622776,,,
08.296,2.410542754,,,
08.298,2.410542754,,,
08.300,2.365553192,,,
08.302,2.395546233,,,
08.304,1.630723672,,,
08.306,1.21082109,,,
08.308,1.360786298,,,
08.310,1.645720193,,,
08.312,1.795685401,,,
08.314,2.185594942,,,
08.316,2.350556671,,,
08.318,2.230584504,,,
08.320,2.230584504,,,
08.322,2.395546233,,,
08.324,1.735699318,,,
08.326,1.810681922,,,
08.328,1.510751506,,,
08.330,1.495754985,,,
08.332,1.60073063,,,
08.334,1.915657567,,,
08.336,2.260577546,,,
08.338,2.605497525,,,
08.340,2.71047317,,,
08.342,2.440535796,,,
08.344,1.840674963,,,
08.346,1.720702797,,,
08.348,1.180828048,,,
08.350,1.360786298,,,
08.352,1.645720193,,,
08.354,2.200591463,,,
08.356,2.185594942,,,
08.358,2.185594942,,,
08.360,2.305567108,,,
08.362,2.110612338,,,
08.364,1.675713235,,,
08.366,1.420772381,,,
08.368,1.555741068,,,
08.370,1.495754985,,,
08.372,1.795685401,,,
08.374,2.125608859,,,
08.376,2.125608859,,,
08.378,2.33556015,,,
08.380,1.930654088,,,
08.382,1.930654088,,,
08.384,1.705706276,,,
08.386,1.525748026,,,
08.388,1.285803694,,,
08.390,1.435768902,,,
08.392,1.795685401,,,
08.394,1.870668005,,,
08.396,2.695476649,,,
08.398,2.575504483,,,
08.400,2.200591463,,,
08.402,2.050626255,,,
08.404,1.60073063,,,
08.406,1.450765422,,,
08.408,1.150835006,,,
08.410,1.435768902,,,
08.412,1.765692359,,,
08.414,2.635490566,,,
08.416,2.410542754,,,
08.418,2.500521879,,,
08.420,2.14060538,,,
08.422,1.855671484,,,
08.424,1.840674963,,,
08.426,1.510751506,,,
08.428,1.135838485,,,
08.430,1.540744547,,,
08.432,1.750695839,,,
08.434,2.200591463,,,
08.436,2.260577546,,,
08.438,2.665483608,,,
08.440,2.455532317,,,
08.442,2.290570588,,,
08.444,1.630723672,,,
08.446,1.375782818,,,
08.448,1.21082109,,,
08.450,1.40577586,,,
08.452,1.885664526,,,
08.454,2.215587984,,,
08.456,2.260577546,,,
08.458,2.5155184,,,
08.460,2.33556015,,,
08.462,1.645720193,,,
08.464,1.480758464,,,
08.466,1.435768902,,,
08.468,1.270807173,,,
08.470,1.690709755,,,
08.472,2.170598421,,,
08.474,2.095615817,,,
08.476,2.125608859,,,
08.478,2.185594942,,,
08.480,1.870668005,,,
08.482,1.630723672,,,
08.484,1.615727151,,,
08.486,1.555741068,,,
08.488,1.510751506,,,
08.490,1.750695839,,,
08.492,2.1556019,,,
08.494,2.425539275,,,
08.496,2.455532317,,,
08.498,2.815448816,,,
08.500,2.365553192,,,
08.502,1.990640171,,,
08.504,1.720702797,,,
08.506,1.480758464,,,
08.508,1.435768902,,,
08.510,1.615727151,,,
08.512,2.185594942,,,
08.514,2.455532317,,,
08.516,2.530514921,,,
08.518,2.410542754,,,
08.520,2.230584504,,,
08.522,2.275574067,,,
08.524,2.050626255,,,
08.526,1.735699318,,,
08.528,1.285803694,,,
08.530,1.60073063,,,
08.532,2.245581025,,,
08.534,2.380549712,,,
08.536,2.650487087,,,
08.538,2.350556671,,,
08.540,1.990640171,,,
08.542,1.840674963,,,
08.544,1.450765422,,,
08.546,1.270807173,,,
08.548,1.375782818,,,
08.550,1.540744547,,,
08.552,1.675713235,,,
08.554,2.320563629,,,
08.556,2.33556015,,,
08.558,2.290570588,,,
08.560,1.975643651,,,
08.562,1.435768902,,,
08.564,1.60073063,,,
08.566,1.240814131,,,
08.568,1.555741068,,,
08.570,1.345789777,,,
08.572,1.750695839,,,
08.574,2.305567108,,,
08.576,2.485525358,,,
08.578,2.395546233,,,
08.580,2.245581025,,,
08.582,1.885664526,,,
08.584,1.495754985,,,
08.586,1.000869798,,,
08.588,1.180828048,,,
08.590,1.570737589,,,
08.592,1.930654088,,,
08.594,2.035629734,,,
08.596,2.290570588,,,
08.598,2.440535796,,,
08.600,2.035629734,,,
08.602,1.735699318,,,
08.604,1.015866319,,,
08.606,1.165831527,,,
08.608,1.300800214,,,
08.610,1.360786298,,,
08.612,2.020633213,,,
08.614,2.170598421,,,
08.616,2.230584504,,,
08.618,2.230584504,,,
08.620,2.035629734,,,
08.622,1.705706276,,,
08.624,1.330793256,,,
08.626,1.135838485,,,
08.628,1.165831527,,,
08.630,1.435768902,,,
08.632,2.065622776,,,
08.634,2.1556019,,,
08.636,2.200591463,,,
08.638,1.990640171,,,
08.640,1.975643651,,,
08.642,1.915657567,,,
08.644,1.735699318,,,
08.646,1.540744547,,,
08.648,1.795685401,,,
08.650,2.005636692,,,
08.652,2.545511441,,,
08.654,2.89043142,,,
08.656,3.355323565,,,
08.658,3.44530269,,,
08.660,3.565274856,,,
08.662,3.26534444,,,
08.664,2.905427941,,,
08.666,2.665483608,,,
08.668,2.470528837,,,
08.670,2.275574067,,,
08.672,2.350556671,,,
08.674,2.500521879,,,
08.676,2.365553192,,,
08.678,1.870668005,,,
08.680,1.495754985,,,
08.682,1.105845444,,,
08.684,0.595963736,,,
08.686,0.85090459,,,
08.688,0.925887194,,,
08.690,0.910890673,,,
08.692,1.390779339,,,
08.694,1.510751506,,,
08.696,1.78068888,,,
08.698,1.705706276,,,
08.700,1.60073063,,,
08.702,1.40577586,,,
08.704,0.775921986,,,
08.706,0.730932424,,,
08.708,1.105845444,,,
08.710,1.465761943,,,
08.712,1.930654088,,,
08.714,2.590501004,,,
08.716,2.200591463,,,
08.718,1.900661047,,,
08.720,1.810681922,,,
08.722,1.390779339,,,
08.724,1.58573411,,,
08.726,1.420772381,,,
08.728,1.495754985,,,
08.730,1.435768902,,,
08.732,2.080619296,,,
08.734,2.215587984,,,
08.736,2.5155184,,,
08.738,2.110612338,,,
08.740,2.020633213,,,
08.742,1.720702797,,,
08.744,1.360786298,,,
08.746,1.195824569,,,
08.748,1.21082109,,,
08.750,1.450765422,,,
08.752,2.095615817,,,
08.754,2.305567108,,,
08.756,2.410542754,,,
08.758,2.260577546,,,
08.760,2.185594942,,,
08.762,1.60073063,,,
08.764,1.255810652,,,
08.766,1.180828048,,,
08.768,1.360786298,,,
08.770,1.630723672,,,
08.772,2.230584504,,,
08.774,2.305567108,,,
08.776,2.305567108,,,
08.778,2.065622776,,,
08.780,1.855671484,,,
08.782,1.450765422,,,
08.784,1.480758464,,,
08.786,1.40577586,,,
08.788,1.510751506,,,
08.790,2.020633213,,,
08.792,2.275574067,,,
08.794,2.33556015,,,
08.796,2.440535796,,,
08.798,2.305567108,,,
08.800,2.065622776,,,
08.802,1.630723672,,,
08.804,1.21082109,,,
08.806,1.420772381,,,
08.808,1.615727151,,,
08.810,2.020633213,,,
08.812,2.485525358,,,
08.814,2.440535796,,,
08.816,2.33556015,,,
08.818,2.215587984,,,
08.820,1.810681922,,,
08.822,1.705706276,,,
08.824,1.705706276,,,
08.826,1.450765422,,,
08.828,1.795685401,,,
08.830,2.1556019,,,
08.832,2.575504483,,,
08.834,2.650487087,,,
08.836,2.740466212,,,
08.838,2.395546233,,,
08.840,1.975643651,,,
08.842,1.78068888,,,
08.844,1.720702797,,,
08.846,1.810681922,,,
08.848,2.035629734,,,
08.850,2.185594942,,,
08.852,2.485525358,,,
08.854,2.770459253,,,
08.856,2.950417503,,,
08.858,2.620494045,,,
08.860,2.425539275,,,
08.862,2.1556019,,,
08.864,1.900661047,,,
08.866,2.215587984,,,
08.868,2.185594942,,,
08.870,2.665483608,,,
08.872,3.08538619,,,
08.874,2.965414024,,,
08.876,3.040396628,,,
08.878,2.995407066,,,
08.880,2.950417503,,,
08.882,2.680480129,,,
08.884,2.260577546,,,
08.886,2.410542754,,,
08.888,2.965414024,,,
08.890,3.205358357,,,
08.892,3.250347919,,,
08.894,3.520285294,,,
08.896,3.400313127,,,
08.898,3.175365315,,,
08.900,2.905427941,,,
08.902,2.545511441,,,
08.904,2.725469691,,,
08.906,2.830445337,,,
08.908,2.89043142,,,
08.910,3.64025746,,,
08.912,3.595267898,,,
08.914,3.985177439,,,
08.916,3.805219189,,,
08.918,3.565274856,,,
08.920,3.280340961,,,
08.922,3.100382711,,,
08.924,2.590501004,,,
08.926,2.680480129,,,
08.928,2.965414024,,,
08.930,3.82021571,,,
08.932,3.520285294,,,
08.934,3.310334003,,,
08.936,3.460299211,,,
08.938,3.415309648,,,
08.940,2.845441857,,,
08.942,2.245581025,,,
08.944,2.260577546,,,
08.946,2.755462733,,,
08.948,2.590501004,,,
08.950,3.145372274,,,
08.952,2.920424462,,,
08.954,2.920424462,,,
08.956,2.935420982,,,
08.958,2.950417503,,,
08.960,2.275574067,,,
08.962,2.035629734,,,
08.964,1.765692359,,,
08.966,1.900661047,,,
08.968,2.020633213,,,
08.970,1.945650609,,,
08.972,2.575504483,,,
08.974,3.280340961,,,
08.976,2.680480129,,,
08.978,2.215587984,,,
08.980,1.870668005,,,
08.982,1.570737589,,,
08.984,1.465761943,,,
08.986,1.615727151,,,
08.988,1.930654088,,,
08.990,2.230584504,,,
08.992,2.440535796,,,
08.994,2.530514921,,,
08.996,2.320563629,,,
08.998,2.1556019,,,
09.000,1.705706276,,,
09.002,1.495754985,,,
09.004,1.21082109,,,
09.006,1.615727151,,,
09.008,1.58573411,,,
09.010,2.14060538,,,
09.012,2.560507962,,,
09.014,2.575504483,,,
09.016,2.185594942,,,
09.018,1.990640171,,,
09.020,1.96064713,,,
09.022,1.645720193,,,
09.024,1.03086284,,,
09.026,1.375782818,,,
09.028,1.900661047,,,
09.030,2.230584504,,,
09.032,2.470528837,,,
09.034,2.725469691,,,
09.036,2.575504483,,,
09.038,2.14060538,,,
09.040,0.970876757,,,
09.042,1.330793256,,,
09.044,1.570737589,,,
09.046,1.525748026,,,
09.048,1.795685401,,,
09.050,2.125608859,,,
09.052,2.440535796,,,
09.054,2.500521879,,,
09.056,2.320563629,,,
09.058,2.035629734,,,
09.060,1.690709755,,,
09.062,1.495754985,,,
09.064,1.240814131,,,
09.066,1.570737589,,,
09.068,1.96064713,,,
09.070,2.410542754,,,
09.072,2.545511441,,,
09.074,2.695476649,,,
09.076,2.080619296,,,
09.078,1.705706276,,,
09.080,1.570737589,,,
09.082,1.390779339,,,
09.084,1.675713235,,,
09.086,1.705706276,,,
09.088,2.110612338,,,
09.090,2.170598421,,,
09.092,2.260577546,,,
09.094,2.440535796,,,
09.096,2.305567108,,,
09.098,1.915657567,,,
09.100,1.330793256,,,
09.102,1.495754985,,,
09.104,1.540744547,,,
09.106,1.630723672,,,
09.108,1.915657567,,,
09.110,2.14060538,,,
09.112,2.425539275,,,
09.114,2.635490566,,,
09.116,2.380549712,,,
09.118,1.660716714,,,
09.120,1.58573411,,,
09.122,1.540744547,,,
09.124,1.570737589,,,
09.126,1.570737589,,,
09.128,1.78068888,,,
09.130,2.14060538,,,
09.132,2.440535796,,,
09.134,2.530514921,,,
09.136,2.320563629,,,
09.138,1.945650609,,,
09.140,1.480758464,,,
09.142,1.465761943,,,
09.144,1.240814131,,,
09.146,1.450765422,,,
09.148,1.900661047,,,
09.150,2.245581025,,,
09.152,2.305567108,,,
09.154,2.14060538,,,
09.156,2.095615817,,,
09.158,1.945650609,,,
09.160,1.495754985,,,
09.162,1.285803694,,,
09.164,1.300800214,,,
09.166,1.675713235,,,
09.168,2.125608859,,,
09.170,2.410542754,,,
09.172,2.530514921,,,
09.174,2.440535796,,,
09.176,2.065622776,,,
09.178,1.58573411,,,
09.180,1.435768902,,,
09.182,1.240814131,,,
09.184,1.270807173,,,
09.186,1.40577586,,,
09.188,1.750695839,,,
09.190,2.440535796,,,
09.192,2.545511441,,,
09.194,2.305567108,,,
09.196,2.425539275,,,
09.198,1.990640171,,,
09.200,1.360786298,,,
09.202,1.300800214,,,
09.204,1.40577586,,,
09.206,1.525748026,,,
09.208,1.705706276,,,
09.210,2.185594942,,,
09.212,2.230584504,,,
09.214,2.110612338,,,
09.216,2.095615817,,,
09.218,1.390779339,,,
09.220,1.285803694,,,
09.222,1.450765422,,,
09.224,1.525748026,,,
09.226,1.345789777,,,
09.228,1.855671484,,,
09.230,2.1556019,,,
09.232,2.230584504,,,
09.234,2.365553192,,,
09.236,2.230584504,,,
09.238,1.480758464,,,
09.240,1.060855881,,,
09.242,1.21082109,,,
09.244,1.40577586,,,
09.246,1.555741068,,,
09.248,2.065622776,,,
09.250,2.455532317,,,
09.252,2.560507962,,,
09.254,2.035629734,,,
09.256,2.110612338,,,
09.258,1.690709755,,,
09.260,1.360786298,,,
09.262,1.045859361,,,
09.264,1.300800214,,,
09.266,1.540744547,,,
09.268,2.080619296,,,
09.270,2.110612338,,,
09.272,2.290570588,,,
09.274,2.065622776,,,
09.276,1.885664526,,,
09.278,1.360786298,,,
09.280,1.375782818,,,
09.282,1.40577586,,,
09.284,1.360786298,,,
09.286,1.660716714,,,
09.288,2.230584504,,,
09.290,2.275574067,,,
09.292,2.455532317,,,
09.294,2.230584504,,,
09.296,1.870668005,,,
09.298,1.315796735,,,
09.300,1.60073063,,,
09.302,1.345789777,,,
09.304,1.420772381,,,
09.306,1.615727151,,,
09.308,2.080619296,,,
09.310,2.380549712,,,
09.312,2.110612338,,,
09.314,2.14060538,,,
09.316,1.96064713,,,
09.318,1.555741068,,,
09.320,1.510751506,,,
09.322,1.525748026,,,
09.324,1.345789777,,,
09.326,1.645720193,,,
09.328,2.290570588,,,
09.330,2.545511441,,,
09.332,2.320563629,,,
09.334,2.14060538,,,
09.336,1.525748026,,,
09.338,1.22581761,,,
09.340,1.285803694,,,
09.342,1.375782818,,,
09.344,1.40577586,,,
09.346,1.465761943,,,
09.348,2.110612338,,,
09.350,2.410542754,,,
09.352,2.545511441,,,
09.354,2.200591463,,,
09.356,2.005636692,,,
09.358,1.60073063,,,
09.360,1.21082109,,,
09.362,1.195824569,,,
09.364,1.390779339,,,
09.366,1.96064713,,,
09.368,2.215587984,,,
09.370,2.320563629,,,
09.372,2.245581025,,,
09.374,2.215587984,,,
09.376,2.005636692,,,
09.378,1.58573411,,,
09.380,1.360786298,,,
09.382,1.465761943,,,
09.384,1.58573411,,,
09.386,1.900661047,,,
09.388,2.380549712,,,
09.390,2.695476649,,,
09.392,2.620494045,,,
09.394,2.500521879,,,
09.396,1.930654088,,,
09.398,1.675713235,,,
09.400,1.675713235,,,
09.402,1.525748026,,,
09.404,1.450765422,,,
09.406,1.810681922,,,
09.408,2.200591463,,,
09.410,2.455532317,,,
09.412,2.455532317,,,
09.414,2.380549712,,,
09.416,2.14060538,,,
09.418,1.495754985,,,
09.420,1.885664526,,,
09.422,1.510751506,,,
09.424,1.195824569,,,
09.426,1.945650609,,,
09.428,2.425539275,,,
09.430,2.260577546,,,
09.432,2.050626255,,,
09.434,2.305567108,,,
09.436,1.855671484,,,
09.438,1.22581761,,,
09.440,1.240814131,,,
09.442,1.495754985,,,
09.444,1.495754985,,,
09.446,1.915657567,,,
09.448,2.095615817,,,
09.450,2.200591463,,,
09.452,2.095615817,,,
09.454,2.095615817,,,
09.456,2.065622776,,,
09.458,1.570737589,,,
09.460,1.165831527,,,
09.462,1.345789777,,,
09.464,1.540744547,,,
09.466,1.795685401,,,
09.468,1.945650609,,,
09.470,2.170598421,,,
09.472,2.110612338,,,
09.474,2.035629734,,,
09.476,1.615727151,,,
09.478,1.540744547,,,
09.480,1.540744547,,,
09.482,1.510751506,,,
09.484,1.450765422,,,
09.486,1.630723672,,,
09.488,1.795685401,,,
09.490,2.305567108,,,
09.492,2.170598421,,,
09.494,1.990640171,,,
09.496,1.510751506,,,
09.498,1.270807173,,,
09.500,1.570737589,,,
09.502,1.120841965,,,
09.504,1.510751506,,,
09.506,1.825678443,,,
09.508,2.080619296,,,
09.510,2.230584504,,,
09.512,2.080619296,,,
09.514,1.825678443,,,
09.516,1.60073063,,,
09.518,1.465761943,,,
09.520,1.315796735,,,
09.522,1.315796735,,,
09.524,1.675713235,,,
09.526,2.005636692,,,
09.528,2.305567108,,,
09.530,2.530514921,,,
09.532,2.770459253,,,
09.534,2.755462733,,,
09.536,2.635490566,,,
09.538,2.365553192,,,
09.540,2.755462733,,,
09.542,2.875434899,,,
09.544,3.280340961,,,
09.546,3.745233106,,,
09.548,3.550278335,,,
09.550,3.940187876,,,
09.552,3.115379232,,,
09.554,2.5155184,,,
09.556,1.840674963,,,
09.558,1.195824569,,,
09.560,0.880897632,,,
09.562,0.910890673,,,
09.564,0.970876757,,,
09.566,1.390779339,,,
09.568,1.720702797,,,
09.570,1.675713235,,,
09.572,1.345789777,,,
09.574,1.300800214,,,
09.576,0.970876757,,,
09.578,0.236047237,,,
09.580,0.29603332,,,
09.582,0.67094634,,,
09.584,1.105845444,,,
09.586,1.735699318,,,
09.588,2.065622776,,,
09.590,2.14060538,,,
09.592,2.14060538,,,
09.594,1.96064713,,,
09.596,1.435768902,,,
09.598,1.255810652,,,
09.600,1.22581761,,,
09.602,1.465761943,,,
09.604,1.645720193,,,
09.606,2.425539275,,,
09.608,2.035629734,,,
09.610,2.365553192,,,
09.612,1.930654088,,,
09.614,1.645720193,,,
09.616,1.480758464,,,
09.618,1.495754985,,,
09.620,1.690709755,,,
09.622,1.510751506,,,
09.624,1.630723672,,,
09.626,1.900661047,,,
09.628,2.200591463,,,
09.630,2.470528837,,,
09.632,2.080619296,,,
09.634,2.050626255,,,
09.636,1.525748026,,,
09.638,1.240814131,,,
09.640,1.420772381,,,
09.642,1.615727151,,,
09.644,1.855671484,,,
09.646,2.035629734,,,
09.648,2.410542754,,,
09.650,2.260577546,,,
09.652,2.095615817,,,
09.654,1.945650609,,,
09.656,1.555741068,,,
09.658,1.495754985,,,
09.660,1.40577586,,,
09.662,1.435768902,,,
09.664,1.795685401,,,
09.666,2.425539275,,,
09.668,2.635490566,,,
09.670,2.620494045,,,
09.672,2.110612338,,,
09.674,1.840674963,,,
09.676,1.555741068,,,
09.678,1.21082109,,,
09.680,1.495754985,,,
09.682,1.675713235,,,
09.684,1.870668005,,,
09.686,1.990640171,,,
09.688,2.5155184,,,
09.690,2.485525358,,,
09.692,2.290570588,,,
09.694,1.720702797,,,
09.696,1.555741068,,,
09.698,1.525748026,,,
09.700,1.855671484,,,
09.702,1.555741068,,,
09.704,2.020633213,,,
09.706,2.425539275,,,
09.708,2.440535796,,,
09.710,2.485525358,,,
09.712,2.440535796,,,
09.714,2.005636692,,,
09.716,1.720702797,,,
09.718,1.495754985,,,
09.720,1.495754985,,,
09.722,1.825678443,,,
09.724,2.410542754,,,
09.726,2.545511441,,,
09.728,2.875434899,,,
09.730,2.680480129,,,
09.732,2.830445337,,,
09.734,2.485525358,,,
09.736,1.96064713,,,
09.738,1.825678443,,,
09.740,1.735699318,,,
09.742,2.005636692,,,
09.744,2.470528837,,,
09.746,2.740466212,,,
09.748,2.905427941,,,
09.750,3.250347919,,,
09.752,3.145372274,,,
09.754,2.71047317,,,
09.756,2.410542754,,,
09.758,2.14060538,,,
09.760,2.14060538,,,
09.762,2.275574067,,,
09.764,2.920424462,,,
09.766,3.175365315,,,
09.768,3.520285294,,,
09.770,3.655253981,,,
09.772,3.205358357,,,
09.774,2.740466212,,,
09.776,2.560507962,,,
09.778,2.605497525,,,
09.780,2.680480129,,,
09.782,3.220354878,,,
09.784,3.475295731,,,
09.786,3.595267898,,,
09.788,3.745233106,,,
09.790,3.685247023,,,
09.792,3.745233106,,,
09.794,3.010403586,,,
09.796,2.860438378,,,
09.798,2.395546233,,,
09.800,2.800452295,,,
09.802,2.935420982,,,
09.804,3.520285294,,,
09.806,3.655253981,,,
09.808,3.700243543,,,
09.810,3.610264419,,,
09.812,3.175365315,,,
09.814,2.770459253,,,
09.816,2.470528837,,,
09.818,2.5155184,,,
09.820,2.605497525,,,
09.822,2.650487087,,,
09.824,3.235351398,,,
09.826,3.175365315,,,
09.828,3.325330523,,,
09.830,2.950417503,,,
09.832,2.920424462,,,
09.834,2.350556671,,,
09.836,2.005636692,,,
09.838,1.870668005,,,
09.840,2.305567108,,,
09.842,2.215587984,,,
09.844,2.350556671,,,
09.846,3.025400107,,,
09.848,2.980410545,,,
09.850,2.470528837,,,
09.852,2.185594942,,,
09.854,1.900661047,,,
09.856,1.375782818,,,
09.858,1.40577586,,,
09.860,1.615727151,,,
09.862,1.810681922,,,
09.864,2.125608859,,,
09.866,2.245581025,,,
09.868,2.530514921,,,
09.870,2.455532317,,,
09.872,2.290570588,,,
09.874,1.750695839,,,
09.876,1.285803694,,,
09.878,1.510751506,,,
09.880,1.390779339,,,
09.882,1.645720193,,,
09.884,2.230584504,,,
09.886,2.5155184,,,
09.888,2.620494045,,,
09.890,2.170598421,,,
09.892,1.930654088,,,
09.894,1.510751506,,,
09.896,1.390779339,,,
09.898,1.315796735,,,
09.900,1.60073063,,,
09.902,1.840674963,,,
09.904,2.125608859,,,
09.906,2.470528837,,,
09.908,2.500521879,,,
09.910,2.170598421,,,
09.912,1.915657567,,,
09.914,1.750695839,,,
09.916,1.40577586,,,
09.918,1.180828048,,,
09.920,1.525748026,,,
09.922,2.1556019,,,
09.924,2.33556015,,,
09.926,2.425539275,,,
09.928,2.260577546,,,
09.930,2.320563629,,,
09.932,1.78068888,,,
09.934,1.645720193,,,
09.936,1.450765422,,,
09.938,1.240814131,,,
09.940,1.450765422,,,
09.942,2.245581025,,,
09.944,2.230584504,,,
09.946,2.5155184,,,
09.948,2.290570588,,,
09.950,1.930654088,,,
09.952,1.675713235,,,
09.954,1.735699318,,,
09.956,1.420772381,,,
09.958,1.450765422,,,
09.960,1.645720193,,,
09.962,2.035629734,,,
09.964,2.320563629,,,
09.966,2.33556015,,,
09.968,2.5155184,,,
09.970,1.975643651,,,
09.972,1.975643651,,,
09.974,1.885664526,,,
09.976,1.465761943,,,
09.978,1.300800214,,,
09.980,1.525748026,,,
09.982,1.96064713,,,
09.984,2.395546233,,,
09.986,2.440535796,,,
09.988,2.320563629,,,
09.990,2.110612338,,,
09.992,1.840674963,,,
09.994,1.96064713,,,
09.996,1.525748026,,,
09.998,1.240814131,,,